Data from Scatter_Coeff_Baseline_USB4F045381__39__0039.txt Node

Date: Thu Feb 13 19:23:57 EST 2025
User: mmckonesweet
Spectrometer: USB4F04538
Trigger mode: 4
Integration Time (sec): 2.400000E-3
Scans to average: 1
Electric dark correction enabled: true
Nonlinearity correction enabled: true
Boxcar width: 0
XAxis mode: Wavelengths
Number of Pixels in Spectrum: 3648
>>>>>Begin Spectral Data<<<<<
345.52	84.48956
345.736	84.48956
345.952	84.48956
346.168	61.29953
346.384	-73.56752
346.6	-56.71465
346.816	-75.67402
347.032	31.78897
347.248	-27.21824
347.464	10.7128
347.68	0.17561
347.896	-1.93175
348.112	-1.93175
348.328	36.00449
348.544	44.4358
348.76	12.82031
348.975	27.57355
349.191	-48.28761
349.407	-27.21824
349.623	27.57355
349.839	-8.2537
350.055	-10.36097
350.27	-6.14641
350.486	27.57355
350.702	-20.89695
350.918	-31.43231
351.133	17.0354
351.349	14.92785
351.565	86.59788
351.781	27.57355
351.996	-14.57544
352.212	2.283
352.428	8.60532
352.644	90.81458
352.859	-37.75323
353.075	29.68125
353.291	10.7128
353.506	-18.7898
353.722	-35.64629
353.938	23.35822
354.153	71.84011
354.369	-29.32529
354.584	-12.46822
354.8	31.78897
355.016	-46.18078
355.231	27.57355
355.447	2.283
355.662	48.65159
355.878	120.334
356.093	25.46587
356.309	61.29953
356.524	-4.03909
356.74	-27.21824
356.955	-6.14641
357.171	-14.57544
357.386	-18.7898
357.602	10.7128
357.817	69.73195
358.033	-18.7898
358.248	8.60532
358.464	-1.93175
358.679	-60.92802
358.895	-18.7898
359.11	4.39042
359.325	14.92785
359.541	-12.46822
359.756	-12.46822
359.972	-4.03909
360.187	54.97546
360.402	29.68125
360.618	-14.57544
360.833	44.4358
361.048	8.60532
361.264	6.49786
361.479	-23.00407
361.694	-4.03909
361.909	-25.11117
362.125	-23.00407
362.34	-1.93175
362.555	2.283
362.77	21.25059
362.986	8.60532
363.201	14.92785
363.416	25.46587
363.631	2.283
363.847	27.57355
364.062	-105.16222
364.277	23.35822
364.492	-18.7898
364.707	-48.28761
364.922	2.283
365.138	-29.32529
365.353	12.82031
365.568	-29.32529
365.783	-69.35446
365.998	80.27299
366.213	12.82031
366.428	2.283
366.643	21.25059
366.858	-37.75323
367.073	52.86748
367.288	-56.71465
367.503	2.283
367.718	-20.89695
367.933	-1.93175
368.148	10.7128
368.363	-10.36097
368.578	2.283
368.793	-27.21824
369.008	46.54368
369.223	63.4076
369.438	-10.36097
369.653	14.92785
369.868	2.283
370.083	31.78897
370.298	-37.75323
370.513	19.14299
370.728	-20.89695
370.943	50.75953
371.157	86.59788
371.372	-16.68263
371.587	2.283
371.802	27.57355
372.017	-4.03909
372.232	27.57355
372.446	4.39042
372.661	27.57355
372.876	2.283
373.091	31.78897
373.306	-18.7898
373.52	38.11228
373.735	44.4358
373.95	36.00449
374.165	6.49786
374.379	52.86748
374.594	14.92785
374.809	-20.89695
375.023	33.89672
375.238	27.57355
375.453	8.60532
375.667	6.49786
375.882	36.00449
376.097	19.14299
376.311	-14.57544
376.526	76.05651
376.741	-27.21824
376.955	14.92785
377.17	19.14299
377.384	14.92785
377.599	-18.7898
377.813	52.86748
378.028	17.0354
378.242	-6.14641
378.457	27.57355
378.672	-23.00407
378.886	61.29953
379.101	40.22009
379.315	-48.28761
379.53	-12.46822
379.744	29.68125
379.958	19.14299
380.173	29.68125
380.387	4.39042
380.602	-37.75323
380.816	4.39042
381.031	-33.53931
381.245	2.283
381.459	-39.86016
381.674	69.73195
381.888	8.60532
382.103	-18.7898
382.317	19.14299
382.531	-18.7898
382.746	-4.03909
382.96	-86.2061
383.174	-14.57544
383.388	61.29953
383.603	2.283
383.817	42.32793
384.031	19.14299
384.246	99.24826
384.46	61.29953
384.674	6.49786
384.888	48.65159
385.103	-27.21824
385.317	46.54368
385.531	27.57355
385.745	-4.03909
385.959	61.29953
386.174	-33.53931
386.388	48.65159
386.602	-1.93175
386.816	-16.68263
387.03	-44.07393
387.244	21.25059
387.458	14.92785
387.672	-35.64629
387.887	44.4358
388.101	57.08346
388.315	-44.07393
388.529	76.05651
388.743	-73.56752
388.957	2.283
389.171	12.82031
389.385	14.92785
389.599	19.14299
389.813	57.08346
390.027	50.75953
390.241	52.86748
390.455	42.32793
390.669	14.92785
390.883	-48.28761
391.097	-33.53931
391.311	65.5157
391.525	-16.68263
391.738	-10.36097
391.952	-48.28761
392.166	10.7128
392.38	61.29953
392.594	88.70622
392.808	2.283
393.022	-41.96706
393.236	-48.28761
393.449	-10.36097
393.663	21.25059
393.877	54.97546
394.091	-14.57544
394.305	-79.88693
394.518	71.84011
394.732	27.57355
394.946	23.35822
395.16	19.14299
395.373	44.4358
395.587	-56.71465
395.801	17.0354
396.015	46.54368
396.228	-1.93175
396.442	46.54368
396.656	-27.21824
396.869	52.86748
397.083	8.60532
397.297	-16.68263
397.51	21.25059
397.724	14.92785
397.938	44.4358
398.151	31.78897
398.365	-8.2537
398.578	-27.21824
398.792	4.39042
399.005	31.78897
399.219	29.68125
399.433	-44.07393
399.646	2.283
399.86	-63.03467
400.073	6.49786
400.287	-44.07393
400.5	4.39042
400.714	2.283
400.927	2.283
401.141	2.283
401.354	6.49786
401.567	82.38126
401.781	46.54368
401.994	-44.07393
402.208	48.65159
402.421	6.49786
402.635	40.22009
402.848	2.283
403.061	-18.7898
403.275	10.7128
403.488	29.68125
403.701	14.92785
403.915	80.27299
404.128	14.92785
404.341	33.89672
404.555	-31.43231
404.768	-23.00407
404.981	-16.68263
405.195	10.7128
405.408	-20.89695
405.621	4.39042
405.834	4.39042
406.048	42.32793
406.261	78.16474
406.474	19.14299
406.687	-6.14641
406.9	-6.14641
407.114	-1.93175
407.327	31.78897
407.54	48.65159
407.753	-25.11117
407.966	-39.86016
408.179	-77.78048
408.392	31.78897
408.605	69.73195
408.819	78.16474
409.032	-44.07393
409.245	-6.14641
409.458	0.17561
409.671	38.11228
409.884	61.29953
410.097	-23.00407
410.31	38.11228
410.523	-31.43231
410.736	52.86748
410.949	-73.56752
411.162	-27.21824
411.375	2.283
411.588	-105.16222
411.801	14.92785
412.014	38.11228
412.227	27.57355
412.44	0.17561
412.653	23.35822
412.865	69.73195
413.078	57.08346
413.291	2.283
413.504	12.82031
413.717	-10.36097
413.93	25.46587
414.143	-23.00407
414.356	-52.50118
414.568	27.57355
414.781	76.05651
414.994	46.54368
415.207	76.05651
415.42	-4.03909
415.632	2.283
415.845	2.283
416.058	31.78897
416.271	40.22009
416.483	12.82031
416.696	36.00449
416.909	2.283
417.121	2.283
417.334	54.97546
417.547	-23.00407
417.759	73.9483
417.972	10.7128
418.185	48.65159
418.397	29.68125
418.61	6.49786
418.823	19.14299
419.035	29.68125
419.248	21.25059
419.46	-92.52504
419.673	44.4358
419.885	21.25059
420.098	-20.89695
420.311	19.14299
420.523	12.82031
420.736	40.22009
420.948	-35.64629
421.161	2.283
421.373	-29.32529
421.586	-65.14129
421.798	46.54368
422.01	-6.14641
422.223	-10.36097
422.435	-12.46822
422.648	90.81458
422.86	2.283
423.073	-31.43231
423.285	-31.43231
423.497	65.5157
423.71	-25.11117
423.922	-4.03909
424.134	38.11228
424.347	-8.2537
424.559	25.46587
424.771	-6.14641
424.984	46.54368
425.196	38.11228
425.408	12.82031
425.621	23.35822
425.833	63.4076
426.045	-14.57544
426.257	50.75953
426.47	73.9483
426.682	10.7128
426.894	54.97546
427.106	-31.43231
427.318	44.4358
427.531	-23.00407
427.743	19.14299
427.955	10.7128
428.167	46.54368
428.379	38.11228
428.591	27.57355
428.804	-8.2537
429.016	2.283
429.228	25.46587
429.44	0.17561
429.652	54.97546
429.864	19.14299
430.076	6.49786
430.288	-14.57544
430.5	14.92785
430.712	27.57355
430.924	6.49786
431.136	-41.96706
431.348	-1.93175
431.56	21.25059
431.772	-14.57544
431.984	-48.28761
432.196	14.92785
432.408	78.16474
432.62	-37.75323
432.832	19.14299
433.044	52.86748
433.256	-10.36097
433.468	-20.89695
433.679	23.35822
433.891	10.7128
434.103	-8.2537
434.315	-37.75323
434.527	-6.14641
434.739	-4.03909
434.95	10.7128
435.162	25.46587
435.374	-48.28761
435.586	52.86748
435.798	59.19149
436.009	-35.64629
436.221	-1.93175
436.433	-8.2537
436.645	23.35822
436.856	-10.36097
437.068	40.22009
437.28	-37.75323
437.491	29.68125
437.703	57.08346
437.915	31.78897
438.126	-6.14641
438.338	19.14299
438.55	-1.93175
438.761	27.57355
438.973	95.03138
439.184	40.22009
439.396	-6.14641
439.608	2.283
439.819	-14.57544
440.031	44.4358
440.242	36.00449
440.454	-44.07393
440.665	-8.2537
440.877	46.54368
441.088	50.75953
441.3	50.75953
441.511	54.97546
441.723	40.22009
441.934	-60.92802
442.146	-14.57544
442.357	-10.36097
442.569	19.14299
442.78	69.73195
442.991	50.75953
443.203	44.4358
443.414	12.82031
443.626	-25.11117
443.837	-1.93175
444.048	19.14299
444.26	38.11228
444.471	97.13981
444.682	71.84011
444.894	-46.18078
445.105	-23.00407
445.316	-75.67402
445.528	23.35822
445.739	44.4358
445.95	59.19149
446.161	-46.18078
446.373	12.82031
446.584	46.54368
446.795	57.08346
447.006	-12.46822
447.217	-23.00407
447.429	67.62381
447.64	23.35822
447.851	-48.28761
448.062	19.14299
448.273	10.7128
448.484	48.65159
448.695	29.68125
448.907	54.97546
449.118	29.68125
449.329	14.92785
449.54	59.19149
449.751	-39.86016
449.962	69.73195
450.173	101.35674
450.384	-48.28761
450.595	17.0354
450.806	27.57355
451.017	40.22009
451.228	95.03138
451.439	80.27299
451.65	36.00449
451.861	36.00449
452.072	54.97546
452.283	0.17561
452.494	88.70622
452.705	-37.75323
452.915	114.00805
453.126	25.46587
453.337	31.78897
453.548	-1.93175
453.759	-31.43231
453.97	-31.43231
454.181	61.29953
454.391	-1.93175
454.602	73.9483
454.813	145.63975
455.024	-23.00407
455.235	31.78897
455.445	31.78897
455.656	38.11228
455.867	50.75953
456.078	103.46523
456.288	38.11228
456.499	137.20416
456.71	6.49786
456.921	23.35822
457.131	57.08346
457.342	19.14299
457.553	-1.93175
457.763	44.4358
457.974	2.283
458.184	6.49786
458.395	-14.57544
458.606	105.57375
458.816	82.38126
459.027	42.32793
459.237	114.00805
459.448	-4.03909
459.659	40.22009
459.869	107.68229
460.08	-10.36097
460.29	36.00449
460.501	4.39042
460.711	67.62381
460.922	2.283
461.132	-31.43231
461.343	73.9483
461.553	65.5157
461.764	44.4358
461.974	86.59788
462.184	36.00449
462.395	-1.93175
462.605	88.70622
462.816	2.283
463.026	71.84011
463.236	31.78897
463.447	78.16474
463.657	90.81458
463.867	69.73195
464.078	61.29953
464.288	-27.21824
464.498	17.0354
464.709	88.70622
464.919	69.73195
465.129	48.65159
465.339	92.92297
465.55	90.81458
465.76	78.16474
465.97	52.86748
466.18	10.7128
466.391	80.27299
466.601	86.59788
466.811	99.24826
467.021	44.4358
467.231	17.0354
467.441	14.92785
467.651	65.5157
467.862	-4.03909
468.072	48.65159
468.282	29.68125
468.492	71.84011
468.702	86.59788
468.912	120.334
469.122	111.89944
469.332	86.59788
469.542	46.54368
469.752	29.68125
469.962	69.73195
470.172	78.16474
470.382	54.97546
470.592	173.05775
470.802	109.79086
471.012	50.75953
471.222	59.19149
471.432	-6.14641
471.642	46.54368
471.852	14.92785
472.062	88.70622
472.272	40.22009
472.482	118.22533
472.691	33.89672
472.901	63.4076
473.111	71.84011
473.321	54.97546
473.531	118.22533
473.741	156.18471
473.95	23.35822
474.16	111.89944
474.37	61.29953
474.58	84.48956
474.79	160.40285
474.999	147.7487
475.209	170.94855
475.419	137.20416
475.628	124.55141
475.838	76.05651
476.048	88.70622
476.258	137.20416
476.467	23.35822
476.677	147.7487
476.886	158.29377
477.096	149.85767
477.306	103.46523
477.515	168.83937
477.725	181.49477
477.935	111.89944
478.144	137.20416
478.354	179.38548
478.563	122.44269
478.773	114.00805
478.982	128.76891
479.192	187.82274
479.401	107.68229
479.611	137.20416
479.82	238.45306
480.03	151.96666
480.239	255.33235
480.449	276.43317
480.658	322.8615
480.868	151.96666
481.077	143.53082
481.287	234.23344
481.496	221.57502
481.705	274.323
481.915	236.34324
482.124	162.51195
482.333	263.77245
482.543	293.31517
482.752	289.09456
482.961	234.23344
483.171	297.53586
483.38	310.19835
483.589	308.08789
483.799	297.53586
484.008	377.74241
484.217	219.46535
484.426	388.29776
484.636	339.74668
484.845	274.323
485.054	445.30366
485.263	474.86679
485.472	474.86679
485.682	398.85351
485.891	400.96472
486.1	443.19213
486.309	510.76883
486.518	487.53762
486.727	438.9691
486.936	521.32906
487.146	443.19213
487.355	521.32906
487.564	485.42577
487.773	534.00179
487.982	517.10492
488.191	620.61188
488.4	500.20897
488.609	601.59802
488.818	618.49918
489.027	688.2247
489.236	523.44114
489.445	690.3378
489.654	633.28834
489.863	762.18949
490.072	639.62674
490.281	667.09439
490.49	645.96525
490.698	681.88549
490.907	635.40113
491.116	796.00618
491.325	865.76068
491.534	728.37539
491.743	738.94201
491.952	732.602
492.16	804.46074
492.369	781.21107
492.578	958.78079
492.787	850.96346
492.996	905.92662
493.204	935.52439
493.413	1041.24186
493.622	1049.69993
493.831	848.84961
494.039	1077.18928
494.248	952.43805
494.457	1151.20324
494.665	1102.56484
494.874	982.03805
495.083	1058.1581
495.291	1159.66232
495.5	977.8094
495.709	1149.08848
495.917	1146.97372
496.126	1168.12147
496.335	1142.74422
496.543	1231.56694
496.752	1117.36758
496.96	1282.3253
497.169	1178.6955
497.377	1244.25639
497.586	1136.4
497.794	1350.00508
498.003	1161.7771
498.211	1328.85495
498.42	1206.18839
498.628	1364.81025
498.837	1341.54501
499.045	1610.15412
499.254	1290.78516
499.462	1605.92416
499.671	1350.00508
499.879	1567.85421
500.087	1472.67759
500.296	1567.85421
500.504	1464.21738
500.713	1553.04909
500.921	1487.48294
501.129	1718.01479
501.338	1381.73051
501.546	1675.71732
501.754	1525.55371
501.962	1781.45845
502.171	1669.3726
502.379	1616.49904
502.587	1692.63645
502.795	1745.50744
503.004	1578.42925
503.212	1842.78387
503.42	1811.06428
503.628	1762.4257
503.837	1646.10842
504.045	1849.12766
504.253	1618.61401
504.461	1872.38785
504.669	1747.62224
504.877	2130.31642
505.085	1777.22897
505.294	1904.1053
505.502	1815.29362
505.71	2033.07618
505.918	1885.07497
506.126	2030.96209
506.334	1906.21975
506.542	2081.69824
506.75	1948.50765
506.958	2216.97318
507.166	2077.47038
507.374	2064.78664
507.582	2107.06474
507.79	2204.29258
507.998	2056.33067
508.206	2166.24895
508.414	2183.15757
508.622	2195.83868
508.83	2145.11245
509.037	2369.11475
509.245	2107.06474
509.453	2360.66375
509.661	2210.63292
509.869	2495.85964
510.077	2244.44674
510.285	2333.1969
510.492	2248.67331
510.7	2405.02969
510.908	2187.38464
511.116	2495.85964
511.324	2255.01309
511.531	2620.45265
511.739	2354.3254
511.947	2580.33398
512.155	2326.85816
512.362	2527.53969
512.57	2415.59233
512.778	2508.53197
512.985	2489.52333
513.193	2658.45572
513.401	2542.32283
513.608	2595.11505
513.816	2624.67541
514.024	2554.99364
514.231	2776.66089
514.439	2728.11731
514.646	2683.78883
514.854	2766.10854
515.061	2673.23359
515.269	2681.6778
515.477	2751.33469
515.684	2804.0954
515.892	2694.34375
516.099	2778.77132
516.307	2774.55044
516.514	3017.15866
516.722	2688.01083
516.929	2894.82358
517.136	3078.30709
517.344	2867.39689
517.551	2892.71392
517.759	3002.39675
517.966	2958.10659
518.173	3128.90272
518.381	2795.65426
518.588	3090.95685
518.796	3036.13715
519.003	3038.24579
519.21	3010.83222
519.418	3274.31307
519.625	3154.19708
519.832	3251.137
520.039	3093.06509
520.247	3291.1671
520.454	3046.68022
520.661	3364.89061
520.868	3053.00587
521.076	3206.88615
521.283	3339.61636
521.49	3348.04139
521.697	3240.60175
521.904	3447.01444
522.112	3316.44611
522.319	3619.59536
522.526	3348.04139
522.733	3678.49675
522.94	3343.82891
523.147	3480.69842
523.354	3499.64362
523.561	3602.76367
523.768	3436.48725
523.975	3686.91002
524.183	3411.22018
524.39	3689.01329
524.597	3499.64362
524.804	3760.51298
525.011	3665.87628
525.218	3657.46225
525.425	3731.07463
525.632	3684.80673
525.838	3579.61814
526.045	3794.15212
526.252	3634.3221
526.459	3745.79428
526.666	3749.99972
526.873	4058.88189
527.08	3710.04492
527.287	4063.08135
527.494	3686.91002
527.701	3918.15276
527.907	3920.25386
528.114	4193.22301
528.321	4016.88282
528.528	4098.77335
528.735	3991.67942
528.941	4109.26985
529.148	3817.27612
529.355	4037.88339
529.562	3981.17714
529.768	4214.20603
529.975	3947.56641
530.182	4296.01943
530.388	4275.04474
530.595	4325.38039
530.802	4107.1706
531.008	4373.60706
531.215	4239.38284
531.422	4398.76424
531.628	4291.82466
531.835	4289.72725
532.042	4109.26985
532.248	4428.11032
532.455	4239.38284
532.661	4386.18604
532.868	4474.21692
533.074	4465.83469
533.281	4472.12139
533.487	4595.71947
533.694	4610.37852
533.9	4708.77511
534.107	4518.21782
534.313	4673.19058
534.52	4593.62523
534.726	4673.19058
534.933	4754.81601
535.139	4666.91028
535.345	4658.53624
535.552	4892.87274
535.758	4595.71947
535.965	4819.67319
536.171	4876.14388
536.377	4878.23507
536.584	4857.32217
536.79	4876.14388
536.996	4807.12189
537.203	5080.97101
537.409	4920.05401
537.615	4880.32623
537.821	4754.81601
538.028	5064.25873
538.234	4882.41738
538.44	5097.6818
538.646	4922.14471
538.853	4928.4167
539.059	4978.5851
539.265	5037.09813
539.471	5101.85926
539.677	5172.86197
539.883	5020.38196
540.09	5168.68608
540.296	5356.50847
540.502	5126.92211
540.708	5254.27309
540.914	5133.1873
541.12	5291.83548
541.326	5300.18165
541.532	5126.92211
541.738	5571.22765
541.944	5168.68608
542.15	5700.3556
542.356	5327.3041
542.562	5692.0275
542.768	5331.47644
542.974	5504.5455
543.18	5398.22103
543.386	5612.89173
543.592	5704.51951
543.798	5846.03621
544.004	5454.51808
544.21	5800.26334
544.415	5617.05762
544.621	5794.0207
544.827	5694.10956
545.033	5781.53478
545.239	5548.30838
545.445	5706.60143
545.651	5654.54638
545.856	5941.70622
546.062	5918.83315
546.268	5902.1964
546.474	5887.638
546.679	5906.35573
546.885	5760.72303
547.091	5777.37262
547.297	5741.99043
547.502	5904.27608
547.708	5683.69903
547.914	5906.35573
548.119	5752.39767
548.325	5854.35732
548.531	5758.64172
548.736	5916.75364
548.942	5791.93977
549.147	6026.93527
549.353	6064.34039
549.559	6143.28172
549.764	6014.4652
549.97	6238.7969
550.175	6076.80707
550.381	6290.68652
550.586	6093.42799
550.792	6334.2625
550.997	6263.70574
551.203	6578.92701
551.408	6130.81955
551.614	6377.82819
551.819	6311.43827
552.025	6344.63622
552.23	6222.18913
552.435	6421.38359
552.641	6317.66334
552.846	6371.60515
553.052	6371.60515
553.257	6595.50274
553.462	6433.8261
553.668	6612.077
553.873	6394.42193
554.078	6566.49423
554.283	6462.85538
554.489	6831.54709
554.694	6603.79006
554.899	6819.13112
555.105	6487.73399
555.31	6932.91357
555.515	6701.13838
555.72	6711.4916
555.925	6728.05555
556.131	6769.45902
556.336	6742.54781
556.541	6858.44555
556.746	6856.37657
556.951	6763.24908
557.156	6680.43023
557.361	6810.85335
557.567	6732.19631
557.772	6984.61022
557.977	6848.10044
558.182	6897.75178
558.387	7129.2861
558.592	6980.47501
558.797	6968.06883
559.002	7087.96133
559.207	6897.75178
559.412	7170.60196
559.617	7017.68868
559.822	6976.3397
560.027	6951.52599
560.232	7209.84381
560.437	6997.01532
560.642	7170.60196
560.847	7090.02778
561.051	7335.7769
561.256	7315.13774
561.461	7368.79502
561.666	7201.58303
561.871	7346.09567
562.076	7137.54999
562.281	7317.20175
562.485	7048.69452
562.69	7294.49638
562.895	7127.22008
563.1	7300.68902
563.305	7156.14242
563.509	7539.98723
563.714	7447.19068
563.919	7698.67188
564.123	7337.8407
564.328	7313.0737
564.533	7290.36785
564.737	7244.94815
564.942	7133.41809
565.147	7608.01039
565.351	7360.54101
565.556	7620.37574
565.761	7488.43898
565.965	7488.43898
566.17	7517.30766
566.374	7550.29527
566.579	7457.50357
566.784	7533.80215
566.988	7678.0706
567.193	7743.98728
567.397	7649.22525
567.602	7748.10636
567.806	7568.84839
568.011	7921.03229
568.215	7972.47018
568.42	7807.82356
568.624	7558.54131
568.828	7688.3715
569.033	7542.04888
569.237	7842.82204
569.442	7655.40675
569.646	7717.21123
569.85	7986.8705
570.055	8056.80072
570.259	7865.46492
570.463	7814.0002
570.668	7807.82356
570.872	7949.83909
571.076	8032.12214
571.281	7988.92761
571.485	7929.26321
571.689	8268.50632
571.893	8038.29206
572.098	8323.96722
572.302	7986.8705
572.506	8250.01618
572.71	7801.64674
572.914	8151.37501
573.119	8149.3195
573.323	8336.28992
573.527	8102.03721
573.731	8239.74319
573.935	8264.39754
574.139	8406.10539
574.343	8295.2115
574.547	8204.81132
574.751	8153.4305
574.955	8348.61193
575.159	8069.13891
575.364	8414.3175
575.568	8153.4305
575.772	8365.04018
575.976	8301.37376
576.18	8229.4697
576.383	8432.79363
576.587	8383.52048
576.791	8463.58373
576.995	8637.98022
577.199	8356.82621
577.403	8599.00928
577.607	8424.58221
577.811	8742.5533
578.015	8365.04018
578.219	8658.48854
578.422	8555.92827
578.626	8676.94444
578.83	8707.70094
579.034	8826.58725
579.238	8580.54701
579.442	8783.54929
579.645	8652.33624
579.849	8582.59845
580.053	8808.14339
580.257	8873.71493
580.46	8799.94565
580.664	8857.32377
580.868	8568.23798
581.071	8838.88235
581.275	8557.97993
581.479	9025.27911
581.682	8773.30098
581.886	8695.39884
582.09	8783.54929
582.293	9055.98984
582.497	9115.35284
582.7	9137.86605
582.904	9315.85274
583.107	9217.66896
583.311	9068.27303
583.515	8912.63932
583.718	8801.99511
583.922	9008.89845
584.125	9082.60264
584.329	8965.89388
584.532	9086.69665
584.735	9082.60264
584.939	9004.80311
585.142	9010.9461
585.346	8765.102
585.549	9205.39327
585.753	9021.18405
585.956	9131.72629
586.159	9037.56387
586.363	9544.80095
586.566	9207.43926
586.769	9548.88748
586.973	9219.71485
587.176	9291.3104
587.379	9146.05215
587.582	9571.36225
587.786	9287.21978
587.989	9602.00659
588.192	9505.97578
588.395	9307.67222
588.599	9454.88122
588.802	9791.9237
589.005	9465.10094
589.208	9706.17112
589.411	9505.97578
589.615	9328.12301
589.818	9544.80095
590.021	9698.00281
590.224	9589.74928
590.427	9663.28472
590.63	9401.73219
590.833	9671.45409
591.036	9532.54099
591.239	9749.05076
591.442	9413.99833
591.645	9644.90275
591.848	9657.15754
592.051	9816.41954
592.254	9806.2132
592.457	10083.69467
592.66	9642.86024
592.863	9734.7583
593.066	9920.50294
593.269	10004.15019
593.472	9659.19995
593.675	9851.11829
593.878	9718.42314
594.081	10006.19006
594.284	9818.46076
594.486	9714.33919
594.689	10179.5275
594.892	10159.14011
595.095	10102.04803
595.298	10173.41143
595.5	10108.16556
595.703	10432.21867
595.906	10059.22175
596.109	10171.37271
596.311	10124.47836
596.514	10279.4059
596.717	10395.55036
596.92	10513.68883
597.122	10387.40128
597.325	10460.73556
597.528	10230.48996
597.73	10501.46961
597.933	10613.46213
598.136	10273.29183
598.338	10142.8292
598.541	10405.73643
598.743	10550.34374
598.946	10346.65268
599.148	10434.25568
599.351	10285.51985
599.554	10419.99637
599.756	10558.48873
599.959	10458.69873
600.161	10660.2842
600.363	10544.23487
600.566	10466.846
600.768	10254.9489
600.971	10497.39643
601.173	10578.8503
601.376	10810.88571
601.578	10700.9938
601.78	10686.74599
601.983	10733.55799
602.185	10648.07037
602.388	10794.60761
602.59	10932.9478
602.792	10625.67721
602.995	10772.22399
603.197	10525.90759
603.399	10900.40195
603.601	10782.39854
603.804	10735.59315
604.006	10971.59222
604.208	11097.6672
604.41	10867.85318
604.613	10831.23229
604.815	10757.97912
605.017	10878.02499
605.219	10808.85099
605.421	10654.17734
605.623	10705.06449
605.826	10896.33352
606.028	10656.21298
606.23	10961.42303
606.432	10627.71301
606.634	11099.70032
606.836	10770.18905
607.038	11174.91836
607.24	11103.76654
607.442	10985.82862
607.644	10922.77753
607.846	10951.25356
608.048	10800.71199
608.25	11130.19588
608.452	10863.78438
608.654	11178.98378
608.856	10926.84567
609.058	11124.09696
609.26	11130.19588
609.462	11073.26888
609.664	10977.6936
609.866	10859.71553
610.067	10937.01582
610.269	11034.63499
610.471	11036.66845
610.673	11120.03096
610.875	11016.33335
611.077	11156.62342
611.278	10904.47034
611.48	11030.56804
611.682	11008.199
611.884	11319.21553
612.085	10963.45689
612.287	11345.63057
612.489	11024.46752
612.69	11272.47705
612.892	11193.21244
613.094	11386.2658
613.295	11124.09696
613.497	11272.47705
613.699	11256.21893
613.9	11398.4556
614.102	10930.91377
614.304	11300.9272
614.505	11122.06397
614.707	11479.71194
614.908	11126.12994
615.11	11416.73963
615.311	11075.30213
615.513	11239.96014
615.714	11219.63573
615.916	11491.89906
616.117	11107.83271
616.319	11246.05726
616.52	11394.39237
616.722	11591.4145
616.923	11518.30331
617.124	11435.02287
617.326	11162.72183
617.527	11280.60587
617.729	11219.63573
617.93	11363.91691
618.131	11465.49319
618.333	11560.95297
618.534	11502.05473
618.735	11640.14863
618.937	11174.91836
619.138	11532.52032
619.339	11246.05726
619.54	11613.75163
619.742	11270.44482
619.943	11530.48935
620.144	11231.8305
620.345	11345.63057
620.546	11235.89534
620.748	11715.27024
620.949	11500.02361
621.15	11516.27227
621.351	11390.3291
621.552	11593.44519
621.753	11753.84148
621.954	11621.87395
622.155	11174.91836
622.356	11686.84729
622.558	11540.64412
622.759	11589.38379
622.96	11432.99144
623.161	11402.51878
623.362	11467.52447
623.563	11794.4394
623.764	11343.5987
623.965	11800.52879
624.166	11735.57129
624.366	11544.70597
624.567	11867.50704
624.768	11617.81281
624.969	11504.08583
625.17	11459.3993
625.371	11408.61349
625.572	11658.42259
625.773	11491.89906
625.973	11822.8559
626.174	11709.17975
626.375	11847.21157
626.576	11735.57129
626.777	11971.00107
626.977	11593.44519
627.178	11820.8262
627.379	11567.04544
627.58	11983.17545
627.78	11719.33052
627.981	11599.53722
628.182	11731.51115
628.382	11581.26089
628.583	11707.14957
628.784	11822.8559
628.984	11658.42259
629.185	12177.92728
629.386	11609.69042
629.586	11926.3592
629.787	11800.52879
629.987	11747.7515
630.188	11583.29163
630.388	11906.06613
630.589	11875.62499
630.79	11808.64786
630.99	11881.71337
631.191	11956.79726
631.391	11694.96831
631.591	12033.89895
631.792	11861.41849
631.992	12271.22136
632.193	11958.8264
632.393	11699.02877
632.594	11668.57447
632.794	11782.26039
632.994	12062.30196
633.195	12113.01785
633.395	12044.04306
633.595	11867.50704
633.796	11723.39077
633.996	12133.30288
634.196	11768.05115
634.397	12396.9418
634.597	11889.83109
634.797	12230.6606
634.997	12068.38812
635.198	12153.58715
635.398	11966.94288
635.598	12159.67228
635.798	11979.11736
635.998	12080.56023
636.199	11987.23351
636.399	12198.20992
636.599	11950.7098
636.799	12094.76068
636.999	11989.26253
637.199	12289.47276
637.399	11845.18198
637.599	12119.10344
637.799	12064.33069
637.999	12305.69576
638.199	12275.27728
638.399	12555.06955
638.599	12419.24429
638.799	12579.39343
638.999	12328.00164
639.199	12242.82913
639.399	12141.41667
639.599	12409.1069
639.799	12232.68871
639.999	12463.84685
640.199	12275.27728
640.399	12510.47341
640.599	12098.81789
640.799	12567.23161
640.998	12336.11266
641.198	12317.86271
641.398	12313.80708
641.598	12500.3375
641.798	12398.96934
641.997	12323.94609
642.197	12372.61088
642.397	12636.14569
642.597	12455.73753
642.796	12725.31827
642.996	12086.64619
643.196	12437.49118
643.395	12378.69371
643.595	12465.87417
643.795	12313.80708
643.994	12546.96139
644.194	12567.23161
644.394	12871.21305
644.593	12628.03852
644.793	12767.87392
644.992	12727.34479
645.192	12820.55841
645.392	12585.47426
645.591	13130.51393
645.791	12571.28557
645.99	12713.15905
646.19	12591.55504
646.389	12646.27952
646.589	12727.34479
646.788	12848.92543
646.987	12506.41907
647.187	13053.5425
647.386	12431.40895
647.586	12569.25859
647.785	12717.21214
647.984	12936.04608
648.184	12733.42431
648.383	13134.56487
648.582	12530.74477
648.782	12739.50377
648.981	12678.70676
649.18	12486.14694
649.38	12919.83833
649.579	12934.02013
649.778	12980.61569
649.977	12897.55212
650.177	12601.68954
650.376	12925.91628
650.575	12954.27941
650.774	13079.87561
650.973	12984.66735
651.173	12816.50589
651.372	12954.27941
651.571	13065.69634
651.77	12727.34479
651.969	12632.09212
652.168	12778.00585
652.367	13008.97688
652.566	13045.43983
652.765	13201.40269
652.964	12650.33301
653.163	13219.63034
653.362	13025.18284
653.561	13112.28447
653.76	12865.13467
653.959	12936.04608
654.158	13416.06184
654.357	13160.89552
654.556	13065.69634
654.755	13324.9387
654.954	12968.46059
655.153	12976.56401
655.352	12990.7448
655.551	12994.79641
655.749	13031.25999
655.948	13025.18284
656.147	13203.42801
656.346	13049.49117
656.545	13051.51684
656.743	13256.08455
656.942	13245.95852
657.141	13158.87011
657.34	13266.21047
657.538	13041.38847
657.737	12988.71899
657.936	13225.70614
658.135	13085.95236
658.333	13377.58862
658.532	13008.97688
658.731	13519.32517
658.929	13162.92092
659.128	13156.8447
659.326	13245.95852
659.525	13335.0639
659.724	13164.94632
659.922	13367.46385
660.121	13239.88285
660.319	13154.81928
660.518	13331.01383
660.716	13375.56367
660.915	13369.48881
661.113	13349.239
661.312	12986.69317
661.51	13448.45924
661.709	13460.60801
661.907	13780.47983
662.105	13021.13138
662.304	13620.55451
662.502	13098.10574
662.701	13296.58758
662.899	13092.02907
663.097	13594.23572
663.296	13300.63779
663.494	13243.9333
663.692	13049.49117
663.891	13108.23343
664.089	13079.87561
664.287	13284.43685
664.485	12954.27941
664.684	13414.03697
664.882	13252.03415
665.08	13367.46385
665.278	13679.2636
665.476	13482.88041
665.675	13278.36143
665.873	13739.99427
666.071	13361.38894
666.269	13519.32517
666.467	13387.71329
666.665	13543.62102
666.863	13328.98879
667.061	13418.08671
667.259	13209.50391
667.457	13266.21047
667.655	13280.38658
667.853	13462.6328
668.051	13262.16011
668.249	13418.08671
668.447	13280.38658
668.645	13638.77487
668.843	13462.6328
669.041	13790.60103
669.239	13264.18529
669.437	13294.56247
669.635	13331.01383
669.833	13458.58323
670.031	13341.13897
670.229	13669.14154
670.426	13328.98879
670.624	13359.36396
670.822	13328.98879
671.02	13505.15235
671.218	13124.43749
671.415	13371.51377
671.613	13065.69634
671.811	13274.31113
672.009	13582.08839
672.206	13507.17705
672.404	13414.03697
672.602	13405.93745
672.799	13298.61269
672.997	13183.17469
673.195	13110.25896
673.392	13156.8447
673.59	13363.41391
673.788	13201.40269
673.985	13266.21047
674.183	13420.11157
674.38	13284.43685
674.578	13531.47316
674.775	13197.35206
674.973	13258.10974
675.17	13347.214
675.368	13464.65757
675.565	13586.13752
675.763	13632.70145
675.96	13482.88041
676.158	13391.76313
676.355	13393.78804
676.553	13578.03926
676.75	13337.08893
676.947	13312.78832
677.145	13377.58862
677.342	13322.91365
677.539	13023.15711
677.737	13511.22644
677.934	13495.0288
678.131	13359.36396
678.329	13162.92092
678.526	13519.32517
678.723	13521.34984
678.92	13462.6328
679.118	13092.02907
679.315	13213.5545
679.512	13349.239
679.709	13316.83846
679.906	13185.20004
680.104	13245.95852
680.301	13298.61269
680.498	12942.1239
680.695	13306.71308
680.892	13371.51377
681.089	13102.15683
681.286	13245.95852
681.483	13203.42801
681.68	13067.72196
681.877	13004.92534
682.075	13292.53736
682.272	12972.51231
682.469	13367.46385
682.665	12907.6823
682.862	13059.61944
683.059	13140.64124
683.256	13130.51393
683.453	13235.83239
683.65	13217.60506
683.847	13065.69634
684.044	13345.18899
684.241	12899.57817
684.438	13333.03887
684.635	12696.94642
684.831	12996.82221
685.028	12660.46663
685.225	13158.87011
685.422	13126.46297
685.619	13162.92092
685.815	13065.69634
686.012	12792.19031
686.209	12595.60886
686.405	13138.61579
686.602	12751.66255
686.799	12820.55841
686.996	12954.27941
687.192	13031.25999
687.389	12905.65627
687.586	13136.59033
687.782	12891.47396
687.979	13237.85762
688.175	12709.10592
688.372	12915.78634
688.568	12733.42431
688.765	12970.48645
688.962	13033.28569
689.158	13122.412
689.355	12909.70832
689.551	13065.69634
689.748	13045.43983
689.944	12936.04608
690.14	12719.23869
690.337	13183.17469
690.533	12769.90032
690.73	12737.47729
690.926	12855.00394
691.123	12737.47729
691.319	12810.42707
691.515	12923.8903
691.712	12810.42707
691.908	12709.10592
692.104	12838.79448
692.301	12751.66255
692.497	12684.7867
692.693	12800.2956
692.889	12654.38647
693.086	12996.82221
693.282	12688.83996
693.478	12662.49333
693.674	12814.47963
693.87	12751.66255
694.067	12605.74329
694.263	12780.03222
694.459	12577.36648
694.655	12579.39343
694.851	12907.6823
695.047	12652.35975
695.243	12646.27952
695.439	12836.76827
695.635	12338.1404
695.831	12745.58318
696.027	12816.50589
696.224	12903.63024
696.42	12451.68284
696.615	12751.66255
696.811	12684.7867
697.007	12826.63715
697.203	12551.01549
697.399	12557.09658
697.595	12540.88021
697.791	12867.1608
697.987	12425.32665
698.183	12778.00585
698.379	12518.58203
698.575	12670.6001
698.77	12514.52773
698.966	12534.79896
699.162	12376.6661
699.358	12526.69055
699.554	12413.16188
699.749	12818.53216
699.945	12216.46366
700.141	12488.17418
700.337	12386.80404
700.532	12492.22865
700.728	12370.58326
700.924	12540.88021
701.119	12386.80404
701.315	12544.93434
701.511	12210.37914
701.706	12638.17247
701.902	12259.05343
702.097	12328.00164
702.293	12261.08144
702.489	12670.6001
702.684	12632.09212
702.88	12626.01171
703.075	12461.81953
703.271	12508.44624
703.466	12289.47276
703.662	12461.81953
703.857	12378.69371
704.053	12650.33301
704.248	12512.50058
704.443	12548.98844
704.639	12299.61219
704.834	12384.77647
705.03	12184.01215
705.225	12542.90727
705.42	12222.54811
705.616	12380.7213
705.811	12173.87067
706.006	12482.09244
706.202	12102.87506
706.397	12157.64391
706.592	12382.74889
706.787	12437.49118
706.983	12336.11266
707.178	12573.31255
707.373	12299.61219
707.568	12325.97386
707.763	12279.33316
707.959	12597.63576
708.154	12380.7213
708.349	12400.99686
708.544	12555.06955
708.739	12216.46366
708.934	11871.56603
709.129	12242.82913
709.324	12019.69687
709.519	12463.84685
709.714	12157.64391
709.909	12037.95661
710.104	11879.68392
710.299	12254.9974
710.494	12104.90363
710.689	12244.85719
710.884	12088.67482
711.079	12133.30288
711.274	11727.45098
711.469	12636.14569
711.664	12021.72576
711.859	12443.57336
712.054	12356.38972
712.249	12346.25128
712.443	11983.17545
712.638	12027.81239
712.833	11759.93139
713.028	12177.92728
713.223	12181.98387
713.417	12368.55563
713.612	11973.03015
713.807	12352.33437
714.002	12200.23814
714.196	12031.8701
714.391	12145.47353
714.586	11956.79726
714.78	11928.38846
714.975	12250.94134
715.17	11833.00424
715.364	12352.33437
715.559	12037.95661
715.754	11808.64786
715.948	11772.11098
716.143	11922.30065
716.337	11575.16861
716.532	11975.05923
716.726	11948.68062
716.921	11883.74281
717.115	11950.7098
717.31	12117.07492
717.504	11987.23351
717.699	11942.59306
717.893	11778.20065
718.088	12297.58432
718.282	12048.10064
718.476	11824.88558
718.671	11536.58224
718.865	12070.41683
719.059	11857.35941
719.254	11873.59552
719.448	11743.69146
719.642	11899.97805
719.837	11532.52032
720.031	11899.97805
720.225	11680.75643
720.419	11753.84148
720.614	11778.20065
720.808	11899.97805
721.002	11583.29163
721.196	11763.99129
721.39	11461.43061
721.585	11483.77435
721.779	11768.05115
721.973	11648.27048
722.167	11361.88514
722.361	11581.26089
722.555	11638.11815
722.749	11656.39218
722.943	11428.92854
723.137	11583.29163
723.331	11274.50927
723.525	11536.58224
723.719	11605.62916
723.913	11597.50655
724.107	11625.93505
724.301	11826.91526
724.495	11451.27398
724.689	11487.83672
724.883	11323.27949
725.077	11402.51878
725.271	11487.83672
725.465	11233.86293
725.659	11217.60323
725.853	11518.30331
726.046	11552.82954
726.24	11420.80264
726.434	11280.60587
726.628	11485.80554
726.822	11380.17077
727.015	11833.00424
727.209	11339.53494
727.403	11323.27949
727.596	11370.01218
727.79	11595.47588
727.984	11469.55574
728.177	11540.64412
728.371	11213.5382
728.565	11500.02361
728.758	11556.89128
728.952	11473.61825
729.146	11583.29163
729.339	11699.02877
729.533	11640.14863
729.726	11565.01463
729.92	11573.13783
730.113	11678.72612
730.307	11510.1791
730.5	11374.07565
730.694	11337.50305
730.887	11367.98044
731.081	11536.58224
731.274	11544.70597
731.468	11552.82954
731.661	11491.89906
731.854	11313.11951
732.048	11386.2658
732.241	11365.94868
732.435	11516.27227
732.628	11678.72612
732.821	11319.21553
733.014	11475.64949
733.208	11329.37536
733.401	11296.86302
733.594	11309.05545
733.788	11599.53722
733.981	11483.77435
734.174	11619.84338
734.367	11406.58193
734.56	11463.46191
734.754	11485.80554
734.947	11629.99612
735.14	11524.39637
735.333	11518.30331
735.526	11595.47588
735.719	11437.05429
735.912	11386.2658
736.105	11321.24752
736.298	11420.80264
736.491	11347.66243
736.684	11164.75461
736.877	11260.28352
737.07	11264.34807
737.263	11264.34807
737.456	11398.4556
737.649	11128.16292
737.842	11298.89511
738.035	11201.34287
738.228	11264.34807
738.421	11172.88563
738.614	11380.17077
738.807	11172.88563
739	11040.73534
739.192	11085.46823
739.385	11213.5382
739.578	10808.85099
739.771	10908.53869
739.964	10601.2466
740.156	11061.06913
740.349	10959.38916
740.542	11044.80219
740.735	11022.434
740.927	10859.71553
741.12	11152.55776
741.313	11002.09812
741.505	11071.23561
741.698	10977.6936
741.891	11081.40182
742.083	11313.11951
742.276	11353.75793
742.468	11339.53494
742.661	11178.98378
742.854	11268.41258
743.046	11158.65623
743.239	11345.63057
743.431	10892.26504
743.624	11010.2326
743.816	10884.12794
744.009	11022.434
744.201	11307.0234
744.393	10983.79488
744.586	10635.85611
744.778	10892.26504
744.971	10975.65982
745.163	11237.92775
745.355	11138.32762
745.548	10912.60699
745.74	11024.46752
745.932	10751.874
746.125	10650.10604
746.317	10943.11778
746.509	10721.34678
746.702	10926.84567
746.894	11036.66845
747.086	10865.81879
747.278	10855.64663
747.471	10914.64112
747.663	11020.40046
747.855	11341.56683
748.047	10859.71553
748.239	11120.03096
748.431	10845.47419
748.623	10898.36774
748.815	10599.21063
749.008	10847.5087
749.2	10509.6158
749.392	10845.47419
749.584	10690.81685
749.776	10967.52458
749.968	10835.30146
750.16	11195.24506
750.352	10780.36365
750.544	10737.6283
750.736	10660.2842
750.928	11008.199
751.12	10760.01414
751.311	10609.39033
751.503	10743.73367
751.695	10688.78143
751.887	10766.11912
752.079	10963.45689
752.271	10711.17044
752.463	10943.11778
752.654	10849.5432
752.846	10770.18905
753.038	10686.74599
753.23	10507.57927
753.421	10446.47743
753.613	10383.32665
753.805	10485.1766
753.997	10646.03469
754.188	10477.0298
754.38	10436.29267
754.572	10527.944
754.763	10717.27628
754.955	10336.46471
755.146	10525.90759
755.338	10322.20099
755.53	10450.55125
755.721	10354.80282
755.913	10303.86096
756.104	10438.32965
756.296	10631.78458
756.487	10613.46213
756.679	10725.41723
756.87	10346.65268
757.062	10364.9902
757.253	10444.44051
757.445	10770.18905
757.636	10387.40128
757.827	10220.29815
758.019	10232.52828
758.21	10338.50233
758.401	10413.88505
758.593	10505.54273
758.784	10248.83435
758.975	10344.61512
759.167	10242.71967
759.358	10470.91956
759.549	10091.85186
759.74	10387.40128
759.932	10055.14273
760.123	9930.70513
760.314	10000.0704
760.505	10208.06753
760.696	10238.64316
760.888	10252.91073
761.079	10028.62772
761.27	10034.74678
761.461	9810.29578
761.652	9995.99055
761.843	9769.46728
762.034	10097.9696
762.225	9765.3841
762.416	9693.91856
762.607	9847.03631
762.798	9904.17867
762.989	9834.79
763.18	9826.6255
763.371	9881.73127
763.562	9947.02788
763.753	9491.67031
763.944	10128.55643
764.135	9918.46246
764.326	9922.54341
764.517	9683.70767
764.708	9612.22059
764.899	9757.21755
765.089	9828.66665
765.28	9989.87067
765.471	9810.29578
765.662	9747.00903
765.853	9773.5504
766.043	9599.96375
766.234	9702.087
766.425	9671.45409
766.615	9765.3841
766.806	9842.95427
766.997	9787.84085
767.187	9385.37643
767.378	9622.43419
767.569	9266.76567
767.759	9842.95427
767.95	9693.91856
768.141	9798.04786
768.331	9771.50885
768.522	9610.17782
768.712	9534.58436
768.903	9791.9237
769.093	9518.23698
769.284	9618.3488
769.474	9595.87801
769.665	9552.97395
769.855	9503.93219
770.046	9659.19995
770.236	9356.75133
770.426	9485.53916
770.617	9350.61696
770.807	9450.79323
770.998	9344.48245
771.188	9442.61703
771.378	9227.89824
771.569	9326.078
771.759	9094.88448
771.949	9552.97395
772.139	9399.68778
772.33	9135.81948
772.52	9250.40117
772.71	9334.25792
772.9	9074.41439
773.09	9078.50855
773.281	9096.93139
773.471	9070.32017
773.661	8830.68569
773.851	8851.17679
774.041	8861.42167
774.231	9131.72629
774.421	8949.50914
774.611	8857.32377
774.802	8965.89388
774.992	9049.84801
775.182	8922.88152
775.372	9135.81948
775.562	8980.2296
775.752	9160.37718
775.942	8771.25126
776.131	8867.56838
776.321	8582.59845
776.511	8953.60543
776.701	8980.2296
776.891	9041.65865
777.081	8935.17156
777.271	8945.41278
777.461	8646.18377
777.651	8871.6661
777.84	8728.20297
778.03	8660.53927
778.22	8758.95257
778.41	8746.65323
778.599	8615.41892
778.789	8662.58998
778.979	8711.80149
779.169	8537.46243
779.358	8672.84326
779.548	8726.15285
779.738	8393.78664
779.927	8555.92827
780.117	8299.31969
780.307	8512.83893
780.496	8231.52444
780.686	8533.35871
780.875	8488.2127
781.065	8635.92929
781.254	8266.45194
781.444	8566.18641
781.633	8599.00928
781.823	8617.47004
782.012	8385.57375
782.202	8165.76304
782.391	8180.15008
782.581	8042.40524
782.77	8184.26049
782.96	8044.46179
783.149	7879.87272
783.338	7974.52743
783.528	7999.21283
783.717	8284.94067
783.906	8081.47638
784.096	8231.52444
784.285	8147.26397
784.474	8038.29206
784.663	7789.29252
784.853	7933.37855
785.042	7855.17302
785.231	8208.92125
785.42	8194.53615
785.61	8054.74428
785.799	8073.25148
785.988	8260.28868
786.177	7910.74317
786.366	8056.80072
786.555	8001.26982
786.744	8087.64484
786.933	8021.83854
787.122	8132.87469
787.312	7997.15583
787.501	8009.49755
787.69	7848.99762
787.879	8229.4697
788.068	7888.10529
788.257	7974.52743
788.445	7830.47033
788.634	7937.49381
788.823	7793.41067
789.012	7789.29252
789.201	7727.51013
789.39	7630.67962
789.579	7529.67866
789.768	7647.16471
789.957	7492.56334
790.145	7886.04718
790.334	7653.34627
790.523	7717.21123
790.712	7729.56985
790.9	7807.82356
791.089	7684.2512
791.278	7816.05904
791.467	7692.49172
791.655	7494.62548
791.844	7778.99676
792.033	7760.46308
792.221	7393.55494
792.41	7527.61688
792.599	7242.88337
792.787	7638.92233
792.976	7603.88844
793.164	7455.44103
793.353	7366.73155
793.541	7463.69104
793.73	7455.44103
793.918	7455.44103
794.107	7387.36525
794.295	7552.35681
794.484	7362.60455
794.672	7474.00306
794.861	7249.07766
795.049	7665.70881
795.238	7372.92189
795.426	7350.22302
795.614	7044.5607
795.803	7416.24877
795.991	7145.81352
796.179	7277.98171
796.368	7180.92954
796.556	7096.227
796.744	7121.02186
796.932	7162.3395
797.121	6953.59392
797.309	6997.01532
797.497	7040.42679
797.685	7271.78835
797.874	7292.43213
798.062	7244.94815
798.25	6852.23855
798.438	7211.90894
798.626	7106.55858
798.814	7023.89025
799.002	7182.99499
799.19	7304.81734
799.378	7158.20814
799.566	6994.94786
799.755	6939.11791
799.943	7178.86407
800.131	7118.95575
800.318	7005.28493
800.506	6916.36766
800.694	7125.15403
800.882	6918.43598
801.07	7137.54999
801.258	6941.18598
801.446	7079.6953
801.634	7090.02778
801.822	6990.81287
802.01	6963.93325
802.197	7335.7769
802.385	6957.72972
802.573	7021.82308
802.761	6893.61466
802.949	7158.20814
803.136	6817.06171
803.324	7005.28493
803.512	6767.38907
803.699	6827.40852
803.887	6746.68825
804.075	6922.57254
804.262	6897.75178
804.45	6972.20431
804.638	6833.61634
804.825	7195.38722
805.013	6754.96885
805.201	7261.46564
805.388	6982.54262
805.576	7158.20814
805.763	7121.02186
805.951	6910.16257
806.138	6877.06531
806.326	7114.82345
806.513	6817.06171
806.701	6986.67779
806.888	7015.62145
807.075	7077.62874
807.263	7073.49555
807.45	7182.99499
807.638	6725.98514
807.825	7065.2289
808.012	6930.84541
808.2	6978.40737
808.387	6906.02573
808.574	7028.02452
808.761	6850.16951
808.949	7216.03915
809.136	7121.02186
809.323	7230.4942
809.51	7240.81856
809.698	7242.88337
809.885	7042.49375
810.072	7356.41388
810.259	6988.74534
810.446	7154.07669
810.633	6918.43598
810.82	6945.32205
811.008	6858.44555
811.195	7195.38722
811.382	6922.57254
811.569	7313.0737
811.756	6908.09416
811.943	7370.85846
812.13	7139.6159
812.317	7327.5215
812.504	7094.16062
812.691	7436.87726
812.878	7368.79502
813.064	7054.89508
813.251	7038.3598
813.438	7145.81352
813.625	6777.73862
813.812	6988.74534
813.999	6885.34017
814.186	7232.55911
814.372	6943.25403
814.559	7147.87934
814.746	7048.69452
814.933	7129.2861
815.12	7094.16062
815.306	7213.97406
815.493	7149.94515
815.68	7054.89508
815.866	7021.82308
816.053	6968.06883
816.24	6984.61022
816.426	6951.52599
816.613	6790.15733
816.799	6928.77723
816.986	6686.64292
817.173	6926.70902
817.359	6701.13838
817.546	7056.96189
817.732	6814.99228
817.919	7106.55858
818.105	7038.3598
818.292	7044.5607
818.478	6792.22703
818.665	6839.82395
818.851	7021.82308
819.037	6866.72123
819.224	6823.26987
819.41	6903.95727
819.597	6674.21733
819.783	6599.64644
819.969	6814.99228
820.156	6877.06531
820.342	6752.89873
820.528	6839.82395
820.714	6485.6609
820.901	7009.41961
821.087	6786.01785
821.273	6841.89311
821.459	6680.43023
821.646	6825.33921
821.832	6713.56217
822.018	7021.82308
822.204	6593.43086
822.39	7071.42892
822.576	6829.47782
822.762	6912.23095
822.948	6545.77109
823.134	6651.43495
823.32	6535.40866
823.507	7030.09162
823.693	6872.92774
823.879	6715.63272
824.065	6752.89873
824.25	6680.43023
824.436	6632.79275
824.622	6858.44555
824.808	6810.85335
824.994	6742.54781
825.18	6452.4883
825.366	6866.72123
825.552	6336.33729
825.738	6593.43086
825.923	6440.04704
826.109	6599.64644
826.295	6342.56152
826.481	6562.34979
826.667	6518.82756
826.852	6562.34979
827.038	6568.56642
827.224	6651.43495
827.409	6292.7618
827.595	6411.01418
827.781	6159.89662
827.966	6491.8801
828.152	6247.10022
828.338	6516.75481
828.523	6188.96909
828.709	6334.2625
828.894	6242.94861
829.08	6280.30977
829.266	6110.0474
829.451	6493.95312
829.637	6317.66334
829.822	6330.11285
830.008	6001.99428
830.193	6294.83706
830.378	6076.80707
830.564	6427.60495
830.749	6226.34121
830.935	6377.82819
831.12	6130.81955
831.305	6126.66531
831.491	5868.91836
831.676	6043.56071
831.861	5843.95587
832.047	6047.71683
832.232	5995.7585
832.417	6033.16998
832.602	5906.35573
832.788	5916.75364
832.973	5848.11653
833.158	6004.07283
833.343	5852.27708
833.528	5868.91836
833.714	6078.88476
833.899	6168.20351
834.084	5862.67806
834.269	6078.88476
834.454	5997.83712
834.639	5920.91264
834.824	5779.45371
835.009	6018.62198
835.194	5681.61685
835.379	5952.10213
835.564	5502.4613
835.749	5723.25593
835.934	5818.98999
836.119	5798.18248
836.304	5569.1442
836.489	5708.68332
836.674	5700.3556
836.859	5798.18248
837.044	5789.85882
837.228	6026.93527
837.413	5673.2879
837.598	5681.61685
837.783	5702.43757
837.968	5866.83829
838.152	5612.89173
838.337	5779.45371
838.522	5560.81015
838.707	5904.27608
838.891	5652.46388
839.076	5708.68332
839.261	5496.20854
839.445	5731.58261
839.63	5371.10894
839.815	5642.05098
839.999	5218.79056
840.184	5706.60143
840.368	5348.16484
840.553	5708.68332
840.737	5352.3367
840.922	5502.4613
841.106	5204.17814
841.291	5533.72191
841.475	5396.13562
841.66	5467.0262
841.844	5235.48906
842.029	5517.05024
842.213	5531.63803
842.397	5364.85174
842.582	5225.05267
842.766	5145.71705
842.951	5154.06975
843.135	5162.42208
843.319	5062.16959
843.504	5206.2657
843.688	5204.17814
843.872	5323.13167
844.056	5273.05523
844.241	5279.31553
844.425	5020.38196
844.609	5285.57561
844.793	5097.6818
844.977	5057.99125
845.161	4867.7789
845.346	5085.14884
845.53	5076.79308
845.714	5452.43331
845.898	4999.48468
846.082	5103.94796
846.266	5072.61506
846.45	5053.81281
846.634	4915.87253
846.818	4955.59289
847.002	4999.48468
847.186	4963.95402
847.37	4884.50849
847.554	5053.81281
847.738	4817.58137
847.922	4905.41842
848.106	4794.56977
848.29	5018.29234
848.473	4817.58137
848.657	4940.96004
848.841	4520.31286
849.025	4777.83234
849.209	4625.03647
849.392	4796.66185
849.576	4874.05267
849.76	4775.74006
849.944	4687.84382
850.127	4821.765
850.311	4817.58137
850.495	4886.59959
850.678	4530.78772
850.862	4800.84593
851.046	4511.93257
851.229	4784.10905
851.413	4583.1537
851.596	4779.9246
851.78	4558.01976
851.964	4788.29341
852.147	4436.49413
852.331	4675.28397
852.514	4641.78707
852.698	4541.26203
852.881	4562.20898
853.065	4754.81601
853.248	4530.78772
853.431	4511.93257
853.615	4407.14927
853.798	4599.90788
853.982	4199.51814
854.165	4440.6859
854.348	4247.77443
854.532	4426.01431
854.715	4251.9701
854.898	4465.83469
855.081	3941.26382
855.265	4247.77443
855.448	4063.08135
855.631	4189.02616
855.814	4058.88189
855.997	4105.07132
856.181	4115.56751
856.364	4012.68246
856.547	4042.08325
856.73	4266.65426
856.913	4113.46831
857.096	4426.01431
857.279	3846.70321
857.462	4050.48274
857.645	3834.09208
857.828	4090.37577
858.011	4163.84324
858.194	4205.81308
858.377	3987.47857
858.56	4065.18104
858.743	3920.25386
858.926	4121.86497
859.109	3930.75909
859.292	4029.48341
859.475	3987.47857
859.658	3913.95049
859.841	3798.35666
860.023	3987.47857
860.206	3747.89701
860.389	4025.28329
860.572	3743.69153
860.755	4029.48341
860.937	3861.4153
861.12	4002.1812
861.303	3800.4589
861.486	3993.77982
861.668	3773.12824
861.851	3911.84932
862.034	3710.04492
862.216	3859.31364
862.399	3533.32034
862.581	3693.21977
862.764	3516.48257
862.947	3874.02489
863.129	3623.80309
863.312	3701.6325
863.494	3571.20103
863.677	3638.52957
863.859	3550.15694
864.042	3588.03496
864.224	3531.21568
864.406	3705.83875
864.589	3541.73879
864.771	3823.58225
864.954	3512.27294
865.136	3810.96981
865.318	3396.47988
865.501	3575.40962
865.683	3230.06608
865.865	3440.69818
866.048	3154.19708
866.23	3516.48257
866.412	3293.27378
866.594	3545.9479
866.777	3468.06746
866.959	3554.3659
867.141	3251.137
867.323	3238.49465
867.505	3099.38971
867.687	3348.04139
867.869	3318.55258
868.052	3425.95961
868.234	3286.9537
868.416	3402.79726
868.598	3428.06518
868.78	3390.16234
868.962	3272.20624
869.144	3636.42584
869.326	3171.05869
869.508	3272.20624
869.69	3240.60175
869.872	3407.00875
870.054	3025.5937
870.236	3301.70032
870.417	2918.02888
870.599	3223.74448
870.781	2918.02888
870.963	3217.42273
871.145	3029.81112
871.327	3196.34916
871.508	2993.96104
871.69	3131.01067
871.872	2907.48124
872.054	3240.60175
872.235	2839.96779
872.417	3158.41258
872.599	2801.98514
872.78	3147.87371
872.962	3154.19708
873.144	3190.02676
873.325	2934.90436
873.507	3240.60175
873.689	3120.47075
873.87	3171.05869
874.052	3046.68022
874.233	3206.88615
874.415	2873.72634
874.596	3137.33443
874.778	2901.15248
874.959	3038.24579
875.141	2833.63766
875.322	3025.5937
875.503	2812.53633
875.685	2871.61654
875.866	2884.27514
876.048	3004.50564
876.229	3023.48496
876.41	2918.02888
876.592	2808.31589
876.773	3038.24579
876.954	2915.91938
877.136	3095.17331
877.317	2882.16541
877.498	3143.65804
877.679	3027.70242
877.86	3175.27393
878.042	3048.78878
878.223	3171.05869
878.404	2894.82358
878.585	3116.25467
878.766	2846.2978
878.947	3050.89734
879.128	2842.07781
879.309	3004.50564
879.49	2918.02888
879.672	3065.65676
879.853	2979.19797
880.034	3173.16632
880.215	2920.13837
880.396	3122.57876
880.576	2839.96779
880.757	3010.83222
880.938	2766.10854
881.119	3128.90272
881.3	2871.61654
881.481	3084.63204
881.662	2797.76456
881.843	3023.48496
882.023	2791.4336
882.204	3086.74033
882.385	2846.2978
882.566	3097.28152
882.747	2782.99213
882.927	3103.60604
883.108	3095.17331
883.289	3133.1186
883.469	3004.50564
883.65	3227.9589
883.831	3137.33443
884.011	3305.91349
884.192	3042.46304
884.373	3259.5649
884.553	2877.94591
884.734	3057.2229
884.914	3038.24579
885.095	3095.17331
885.275	2850.51773
885.456	3145.76588
885.636	3019.26744
885.817	3179.48911
885.997	2998.17893
886.178	3114.1466
886.358	2886.38486
886.538	3076.19874
886.719	2966.54332
886.899	3044.57163
887.08	3259.5649
887.26	3192.13424
887.44	2913.80987
887.621	3318.55258
887.801	2808.31589
887.981	3217.42273
888.161	3086.74033
888.342	3168.95105
888.522	3012.94105
888.702	3120.47075
888.882	2867.39689
889.062	3000.28785
889.242	3078.30709
889.423	3139.44232
889.603	2884.27514
889.783	3293.27378
889.963	2799.87486
890.143	3249.02998
890.323	3071.982
890.503	3080.41542
890.683	2937.01372
890.863	3112.03852
891.043	3053.00587
891.223	3149.98151
891.403	2742.89219
891.583	3164.73571
891.763	2825.1973
891.943	3289.06041
892.122	2993.96104
892.302	3122.57876
892.482	3204.77879
892.662	3221.63725
892.842	2962.32499
893.022	3055.11439
893.201	2884.27514
893.381	3053.00587
893.561	2913.80987
893.741	3040.35442
893.92	2913.80987
894.1	2780.88173
894.28	2685.89984
894.459	2715.45262
894.639	2745.00283
894.819	2854.7376
894.998	2698.56562
895.178	3015.04986
895.357	2823.08717
895.537	2886.38486
895.716	2797.76456
895.896	2846.2978
896.075	2926.46674
896.255	2911.70034
896.434	2791.4336
896.614	3114.1466
896.793	2861.06731
896.973	2918.02888
897.152	2588.78038
897.331	2861.06731
897.511	2639.45469
897.69	2696.45469
897.87	2593.00351
898.049	2726.00656
898.228	2449.39101
898.407	2664.78916
898.587	2516.97996
898.766	2797.76456
898.945	2635.2321
899.124	2791.4336
899.304	2557.1054
899.483	2533.87539
899.662	2293.05007
899.841	2633.12079
900.02	2470.51378
900.199	2582.4456
900.378	2392.35417
900.557	2405.02969
900.737	2445.16632
900.916	2508.53197
901.095	2210.63292
901.274	2371.22748
901.453	2166.24895
901.632	2178.93046
901.811	2286.71078
901.989	2225.42674
902.168	2347.98695
902.347	2377.56559
902.526	2035.19026
902.705	2369.11475
902.884	2246.56003
903.063	2535.98727
903.242	2081.69824
903.42	2142.99875
903.599	2178.93046
903.778	2090.15386
903.957	1863.92967
904.135	2267.69242
904.314	1794.14676
904.493	1967.53645
904.672	1923.13518
904.85	1997.13581
905.029	1830.09616
905.207	1984.45052
905.386	1686.2918
905.565	1944.27897
905.743	1832.21079
905.922	1899.87637
906.1	1665.14277
906.279	1988.67897
906.457	1608.03914
906.636	1889.30397
906.814	1696.86621
906.993	1720.12963
907.171	1578.42925
907.35	1612.26909
907.528	1578.42925
907.707	1701.09595
907.885	1593.23424
908.063	1703.21081
908.242	1542.47397
908.42	1491.71303
908.598	1502.28826
908.777	1605.92416
908.955	1443.06686
909.133	1608.03914
909.311	1320.39495
909.49	1447.29696
909.668	1555.16411
909.846	1550.93407
910.024	1561.50917
910.202	1720.12963
910.38	1449.41201
910.559	1804.72024
910.737	1481.13779
910.915	1415.5712
911.093	1409.22606
911.271	1542.47397
911.449	1333.08496
911.627	1569.96922
911.805	1436.7217
911.983	1599.57921
912.161	1531.89881
912.339	1667.25769
912.517	1356.35014
912.695	1500.17322
912.872	1464.21738
913.05	1673.60242
913.228	1476.90769
913.406	1517.09356
913.584	1517.09356
913.762	1696.86621
913.939	1500.17322
914.117	1641.87854
914.295	1278.09538
914.473	1517.09356
914.65	1337.31498
914.828	1523.43867
915.006	1358.46517
915.184	1561.50917
915.361	1155.43277
915.539	1567.85421
915.716	1261.1758
915.894	1510.74844
916.072	1303.47502
916.249	1428.2615
916.427	1280.21034
916.604	1654.56816
916.782	1214.64785
916.959	1481.13779
917.137	1172.35107
917.314	1453.64212
917.492	1371.15534
917.669	1483.25284
917.847	1237.91165
918.024	1381.73051
918.201	1275.98042
918.379	1358.46517
918.556	1163.89189
918.733	1309.81998
918.911	1265.40568
919.088	1443.06686
919.265	1140.62947
919.442	1185.03996
919.62	1142.74422
919.797	1500.17322
919.974	1178.6955
920.151	1227.33715
920.328	1034.89837
920.506	1320.39495
920.683	1149.08848
920.86	1297.13008
921.037	1085.64772
921.214	1299.24506
921.391	1201.95867
921.568	1163.89189
921.745	992.6098
921.922	1214.64785
922.099	1191.38445
922.276	1210.41811
922.453	1039.12736
922.63	1170.23627
922.807	1032.78388
922.984	1172.35107
923.161	853.07732
923.338	1155.43277
923.514	939.75276
923.691	1056.04355
923.868	1001.06731
924.045	1077.18928
924.222	937.63857
924.399	920.72532
924.575	948.20959
924.752	1015.86821
924.929	783.32462
925.105	971.46647
925.282	677.6594
925.459	834.05287
925.635	774.87045
925.812	1020.09709
925.989	747.39549
926.165	872.10247
926.342	823.48405
926.518	905.92662
926.695	867.8746
926.871	745.2821
927.048	783.32462
927.224	844.62192
927.401	745.2821
927.577	796.00618
927.754	764.30296
927.93	715.6958
928.107	686.11162
928.283	831.93909
928.459	804.46074
928.636	848.84961
928.812	711.46935
928.988	838.28047
929.165	707.24295
929.341	722.03554
929.517	669.20737
929.693	810.80176
929.87	686.11162
930.046	690.3378
930.222	696.67715
930.398	711.46935
930.574	548.78728
930.751	755.84914
930.927	527.66536
931.103	741.05536
931.279	656.52967
931.455	667.09439
931.631	534.00179
931.807	555.12413
931.983	500.20897
932.159	599.48543
932.335	417.85491
932.511	517.10492
932.687	428.41181
932.863	559.34876
933.039	432.63468
933.215	483.31395
933.391	419.96626
933.566	365.07655
933.742	462.19651
933.918	419.96626
934.094	470.64331
934.27	462.19651
934.445	394.63116
934.621	352.41131
934.797	346.07892
934.973	348.18969
935.148	327.08269
935.324	373.52039
935.5	276.43317
935.675	263.77245
935.851	232.12365
936.027	331.30395
936.202	232.12365
936.378	276.43317
936.553	331.30395
936.729	259.55236
936.904	213.13647
937.08	314.41933
937.255	206.80777
937.431	263.77245
937.606	61.29953
937.782	175.16697
937.957	204.69824
938.133	183.60407
938.308	139.31302
938.483	166.73021
938.659	154.07568
938.834	130.87769
939.009	206.80777
939.185	187.82274
939.36	21.25059
939.535	196.26033
939.71	88.70622
939.886	42.32793
940.061	124.55141
940.236	90.81458
940.411	82.38126
940.586	128.76891
940.761	170.94855
940.937	109.79086
941.112	158.29377
941.287	145.63975
941.462	154.07568
941.637	31.78897
941.812	139.31302
941.987	52.86748
942.162	65.5157
942.337	57.08346
942.512	36.00449
942.687	118.22533
942.862	73.9483
943.037	120.334
943.212	107.68229
943.386	154.07568
943.561	130.87769
943.736	154.07568
943.911	65.5157
944.086	44.4358
944.26	63.4076
944.435	111.89944
944.61	36.00449
944.785	78.16474
944.959	147.7487
945.134	69.73195
945.309	95.03138
945.483	59.19149
945.658	-23.00407
945.833	52.86748
946.007	67.62381
946.182	52.86748
946.357	80.27299
946.531	107.68229
946.706	86.59788
946.88	44.4358
947.055	120.334
947.229	170.94855
947.404	88.70622
947.578	137.20416
947.752	57.08346
947.927	95.03138
948.101	10.7128
948.276	57.08346
948.45	69.73195
948.624	139.31302
948.799	38.11228
948.973	48.65159
949.147	88.70622
949.321	116.11668
949.496	65.5157
949.67	61.29953
949.844	69.73195
950.018	124.55141
950.193	107.68229
950.367	88.70622
950.541	82.38126
950.715	46.54368
950.889	139.31302
951.063	69.73195
951.237	137.20416
951.411	105.57375
951.585	126.66015
951.759	38.11228
951.933	135.09531
952.107	44.4358
952.281	44.4358
952.455	44.4358
952.629	116.11668
952.803	19.14299
952.977	69.73195
953.151	114.00805
953.325	103.46523
953.499	86.59788
953.672	105.57375
953.846	29.68125
954.02	54.97546
954.194	48.65159
954.368	160.40285
954.541	122.44269
954.715	80.27299
954.889	137.20416
955.062	120.334
955.236	67.62381
955.41	86.59788
955.583	76.05651
955.757	-4.03909
955.93	95.03138
956.104	120.334
956.278	97.13981
956.451	84.48956
956.625	84.48956
956.798	156.18471
956.972	19.14299
957.145	120.334
957.319	130.87769
957.492	36.00449
957.665	162.51195
957.839	107.68229
958.012	101.35674
958.185	111.89944
958.359	38.11228
958.532	80.27299
958.705	114.00805
958.879	73.9483
959.052	23.35822
959.225	71.84011
959.398	97.13981
959.572	59.19149
959.745	86.59788
959.918	128.76891
960.091	52.86748
960.264	40.22009
960.438	97.13981
960.611	120.334
960.784	23.35822
960.957	40.22009
961.13	86.59788
961.303	151.96666
961.476	141.42191
961.649	149.85767
961.822	65.5157
961.995	21.25059
962.168	88.70622
962.341	44.4358
962.514	84.48956
962.686	120.334
962.859	88.70622
963.032	97.13981
963.205	97.13981
963.378	57.08346
963.551	149.85767
963.723	137.20416
963.896	99.24826
964.069	101.35674
964.242	92.92297
964.414	-14.57544
964.587	36.00449
964.76	29.68125
964.932	69.73195
965.105	78.16474
965.278	149.85767
965.45	86.59788
965.623	69.73195
965.795	139.31302
965.968	114.00805
966.14	105.57375
966.313	78.16474
966.485	149.85767
966.658	59.19149
966.83	145.63975
967.003	103.46523
967.175	95.03138
967.348	82.38126
967.52	71.84011
967.692	109.79086
967.865	27.57355
968.037	71.84011
968.209	92.92297
968.382	162.51195
968.554	29.68125
968.726	109.79086
968.898	40.22009
969.071	137.20416
969.243	71.84011
969.415	61.29953
969.587	103.46523
969.759	54.97546
969.932	-14.57544
970.104	105.57375
970.276	149.85767
970.448	78.16474
970.62	40.22009
970.792	21.25059
970.964	88.70622
971.136	27.57355
971.308	40.22009
971.48	21.25059
971.652	2.283
971.824	44.4358
971.996	-44.07393
972.168	63.4076
972.339	103.46523
972.511	19.14299
972.683	82.38126
972.855	63.4076
973.027	12.82031
973.199	14.92785
973.37	31.78897
973.542	69.73195
973.714	27.57355
973.886	78.16474
974.057	25.46587
974.229	63.4076
974.401	-12.46822
974.572	-27.21824
974.744	69.73195
974.915	111.89944
975.087	95.03138
975.259	65.5157
975.43	65.5157
975.602	158.29377
975.773	95.03138
975.945	10.7128
976.116	36.00449
976.288	95.03138
976.459	78.16474
976.63	21.25059
976.802	-4.03909
976.973	8.60532
977.145	61.29953
977.316	73.9483
977.487	95.03138
977.659	40.22009
977.83	69.73195
978.001	17.0354
978.172	143.53082
978.344	6.49786
978.515	29.68125
978.686	69.73195
978.857	107.68229
979.028	6.49786
979.2	-31.43231
979.371	23.35822
979.542	88.70622
979.713	61.29953
979.884	109.79086
980.055	29.68125
980.226	78.16474
980.397	29.68125
980.568	4.39042
980.739	-10.36097
980.91	50.75953
981.081	19.14299
981.252	90.81458
981.423	76.05651
981.594	82.38126
981.765	69.73195
981.936	54.97546
982.106	12.82031
982.277	-14.57544
982.448	-6.14641
982.619	21.25059
982.79	-56.71465
982.96	90.81458
983.131	65.5157
983.302	54.97546
983.472	-4.03909
983.643	105.57375
983.814	71.84011
983.984	17.0354
984.155	50.75953
984.326	67.62381
984.496	73.9483
984.667	-10.36097
984.837	59.19149
985.008	63.4076
985.178	6.49786
985.349	73.9483
985.519	97.13981
985.69	-20.89695
985.86	63.4076
986.031	-29.32529
986.201	105.57375
986.371	86.59788
986.542	86.59788
986.712	2.283
986.882	14.92785
987.053	48.65159
987.223	19.14299
987.393	36.00449
987.563	-29.32529
987.734	61.29953
987.904	-18.7898
988.074	44.4358
988.244	23.35822
988.414	25.46587
988.585	63.4076
988.755	95.03138
988.925	10.7128
989.095	78.16474
989.265	-37.75323
989.435	29.68125
989.605	44.4358
989.775	42.32793
989.945	139.31302
990.115	38.11228
990.285	-14.57544
990.455	17.0354
990.625	-65.14129
990.795	25.46587
990.965	57.08346
991.134	21.25059
991.304	-1.93175
991.474	95.03138
991.644	-4.03909
991.814	2.283
991.984	-23.00407
992.153	27.57355
992.323	23.35822
992.493	63.4076
992.662	21.25059
992.832	23.35822
993.002	2.283
993.171	31.78897
993.341	23.35822
993.511	2.283
993.68	-12.46822
993.85	103.46523
994.019	48.65159
994.189	19.14299
994.358	-10.36097
994.528	86.59788
994.697	14.92785
994.867	-31.43231
995.036	19.14299
995.206	27.57355
995.375	-48.28761
995.544	33.89672
995.714	27.57355
995.883	31.78897
996.052	63.4076
996.222	19.14299
996.391	36.00449
996.56	50.75953
996.73	40.22009
996.899	114.00805
997.068	33.89672
997.237	21.25059
997.406	17.0354
997.576	-6.14641
997.745	27.57355
997.914	36.00449
998.083	-29.32529
998.252	40.22009
998.421	-52.50118
998.59	65.5157
998.759	-12.46822
998.928	-1.93175
999.097	31.78897
999.266	69.73195
999.435	78.16474
999.604	19.14299
999.773	19.14299
999.942	0.17561
1000.111	120.334
1000.28	63.4076
1000.448	27.57355
1000.617	52.86748
1000.786	-10.36097
1000.955	48.65159
1001.124	4.39042
1001.292	-8.2537
1001.461	44.4358
1001.63	80.27299
1001.798	4.39042
1001.967	63.4076
1002.136	78.16474
1002.304	-52.50118
1002.473	-6.14641
1002.642	-18.7898
1002.81	52.86748
1002.979	-14.57544
1003.147	29.68125
1003.316	80.27299
1003.484	-14.57544
1003.653	46.54368
1003.821	23.35822
1003.99	105.57375
1004.158	10.7128
1004.327	-20.89695
1004.495	31.78897
1004.663	78.16474
1004.832	-48.28761
1005	-27.21824
1005.168	76.05651
1005.337	105.57375
1005.505	25.46587
1005.673	29.68125
1005.842	-29.32529
1006.01	10.7128
1006.178	6.49786
1006.346	-54.60793
1006.514	-14.57544
1006.683	57.08346
1006.851	-39.86016
1007.019	25.46587
1007.187	-31.43231
1007.355	36.00449
1007.523	44.4358
1007.691	78.16474
1007.859	21.25059
1008.027	12.82031
1008.195	114.00805
1008.363	-16.68263
1008.531	33.89672
1008.699	14.92785
1008.867	-6.14641
1009.035	111.89944
1009.203	71.84011
1009.37	40.22009
1009.538	-31.43231
1009.706	27.57355
1009.874	31.78897
1010.042	10.7128
1010.209	52.86748
1010.377	-39.86016
1010.545	31.78897
1010.713	36.00449
1010.88	-8.2537
1011.048	88.70622
1011.216	31.78897
1011.383	52.86748
1011.551	-20.89695
1011.718	17.0354
1011.886	-65.14129
1012.054	73.9483
1012.221	31.78897
1012.389	-25.11117
1012.556	-29.32529
1012.724	-56.71465
1012.891	57.08346
1013.058	-4.03909
1013.226	12.82031
1013.393	27.57355
1013.561	12.82031
1013.728	61.29953
1013.895	63.4076
1014.063	-37.75323
1014.23	-14.57544
1014.397	-20.89695
1014.565	103.46523
1014.732	6.49786
1014.899	46.54368
1015.066	27.57355
1015.233	4.39042
1015.401	8.60532
1015.568	27.57355
1015.735	-54.60793
1015.902	48.65159
1016.069	10.7128
1016.236	27.57355
1016.403	71.84011
1016.57	-6.14641
1016.737	12.82031
1016.904	57.08346
1017.071	-27.21824
1017.238	-6.14641
1017.405	10.7128
1017.572	-50.3944
1017.739	4.39042
1017.906	59.19149
1018.073	19.14299
1018.24	-25.11117
1018.407	2.283
1018.573	44.4358
1018.74	-27.21824
1018.907	-1.93175
1019.074	4.39042
1019.241	17.0354
1019.407	-1.93175
1019.574	76.05651
1019.741	25.46587
1019.907	57.08346
1020.074	0.17561
1020.241	-56.71465
1020.407	61.29953
1020.574	27.57355
1020.74	10.7128
1020.907	33.89672
1021.073	57.08346
1021.24	4.39042
1021.406	-35.64629
1021.573	-31.43231
1021.739	-20.89695
1021.906	40.22009
1022.072	54.97546
1022.239	23.35822
1022.405	59.19149
1022.571	12.82031
1022.738	23.35822
1022.904	19.14299
1023.07	-12.46822
1023.237	57.08346
1023.403	29.68125
1023.569	40.22009
1023.735	-10.36097
1023.902	12.82031
1024.068	107.68229
1024.234	23.35822
1024.4	46.54368
1024.566	25.46587
1024.732	10.7128
1024.898	44.4358
1025.065	0.17561
1025.231	42.32793
1025.397	46.54368
1025.563	23.35822
1025.729	-6.14641
1025.895	21.25059
1026.061	103.46523
1026.227	6.49786
1026.392	48.65159
1026.558	-18.7898
1026.724	42.32793
1026.89	19.14299
1027.056	23.35822
1027.222	-20.89695
1027.388	14.92785
1027.553	25.46587
1027.719	23.35822
1027.885	-81.99334
1028.051	31.78897
1028.216	-6.14641
1028.382	14.92785
1028.548	67.62381
1028.713	-37.75323
1028.879	-8.2537
1029.045	2.283
1029.21	6.49786
1029.376	-10.36097
1029.541	42.32793
1029.707	2.283
1029.873	-48.28761
1030.038	14.92785
1030.204	-6.14641
1030.369	52.86748
1030.534	-12.46822
1030.7	61.29953
1030.865	29.68125
1031.031	63.4076
1031.196	29.68125
1031.361	-23.00407
1031.527	-39.86016
1031.692	10.7128
1031.857	-65.14129
1032.023	19.14299
1032.188	36.00449
1032.353	25.46587
1032.518	111.89944
1032.684	25.46587
1032.849	25.46587
1033.014	82.38126
1033.179	-18.7898
1033.344	-8.2537
1033.509	97.13981
1033.674	-4.03909
1033.839	52.86748
1034.004	99.24826
1034.17	-4.03909
1034.335	59.19149
1034.5	-18.7898
1034.664	14.92785
1034.829	42.32793
1034.994	54.97546
1035.159	23.35822
1035.324	76.05651
1035.489	12.82031
1035.654	36.00449
1035.819	-60.92802
1035.984	2.283
1036.148	-63.03467
1036.313	10.7128
1036.478	27.57355
1036.643	78.16474
1036.807	-18.7898
1036.972	31.78897
1037.137	-6.14641
1037.301	92.92297
1037.466	54.97546
1037.631	-10.36097
1037.795	19.14299
1037.96	-14.57544
1038.124	-77.78048
1038.289	0.17561
1038.454	-14.57544
1038.618	61.29953
1038.783	17.0354
1038.947	-25.11117
1039.111	65.5157
1039.276	-31.43231
1039.44	-12.46822
1039.605	65.5157
1039.769	19.14299
1039.933	2.283
1040.098	57.08346
1040.262	42.32793
1040.426	63.4076
1040.591	57.08346
1040.755	-39.86016
1040.919	21.25059
1041.083	57.08346
1041.248	-20.89695
1041.412	19.14299
1041.576	78.16474
1041.74	-6.14641
1041.904	6.49786
1042.068	27.57355
1042.232	48.65159
1042.397	2.283
1042.561	10.7128
1042.725	-16.68263
1042.889	-14.57544
1043.053	-6.14641
1043.217	-18.7898
1043.381	-27.21824
1043.544	27.57355
1043.708	78.16474
1043.872	21.25059
1044.036	-56.71465
1044.2	-14.57544
1044.364	19.14299
1044.528	-6.14641
1044.691	-39.86016
1044.855	52.86748
1045.019	-29.32529
1045.183	-4.03909
1045.346	2.283
1045.51	2.283
1045.674	31.78897
1045.837	52.86748
1046.001	46.54368
1046.165	48.65159
1046.328	-23.00407
1046.492	-14.57544
1046.655	-10.36097
1046.819	-18.7898
1046.983	2.283
1047.146	2.283
1047.31	105.57375
1047.473	-39.86016
1047.636	-6.14641
1047.8	48.65159
1047.963	40.22009
1048.127	80.27299
1048.29	2.283
