Data from Scatter_Coeff_Baseline_USB4F045381__41__0041.txt Node

Date: Thu Feb 13 19:24:18 EST 2025
User: mmckonesweet
Spectrometer: USB4F04538
Trigger mode: 4
Integration Time (sec): 2.400000E-3
Scans to average: 1
Electric dark correction enabled: true
Nonlinearity correction enabled: true
Boxcar width: 0
XAxis mode: Wavelengths
Number of Pixels in Spectrum: 3648
>>>>>Begin Spectral Data<<<<<
345.52	-20.54576
345.736	-20.54576
345.952	-20.54576
346.168	-64.79019
346.384	23.70949
346.6	40.5714
346.816	-5.79519
347.032	-18.43861
347.248	0.52684
347.464	-7.90249
347.68	-45.82964
347.896	8.95656
348.112	13.17157
348.328	67.97517
348.544	0.52684
348.76	-22.65289
348.975	-31.08114
349.191	-16.33143
349.407	21.60186
349.623	-37.40208
349.839	-14.22423
350.055	55.32679
350.27	38.46358
350.486	-10.00976
350.702	-3.68787
350.918	-92.17399
351.133	25.81715
351.349	-45.82964
351.565	72.19148
351.781	76.40788
351.996	-39.50901
352.212	-73.21644
352.428	34.24801
352.644	21.60186
352.859	76.40788
353.075	8.95656
353.291	34.24801
353.506	-18.43861
353.722	51.11085
353.938	-3.68787
354.153	34.24801
354.369	-3.68787
354.584	42.67924
354.8	-33.18815
355.016	25.81715
355.231	6.8491
355.447	25.81715
355.662	-12.11701
355.878	82.73264
356.093	-5.79519
356.309	2.63424
356.524	57.4348
356.74	-16.33143
356.955	-62.68356
357.171	-10.00976
357.386	-24.75999
357.602	-5.79519
357.817	11.06405
358.033	110.14229
358.248	2.63424
358.464	15.2791
358.679	-20.54576
358.895	57.4348
359.11	13.17157
359.325	-66.89679
359.541	118.57677
359.756	59.54283
359.972	13.17157
360.187	-24.75999
360.402	-20.54576
360.618	-22.65289
360.833	-3.68787
361.048	-66.89679
361.264	-24.75999
361.479	8.95656
361.694	2.63424
361.909	42.67924
362.125	11.06405
362.34	-12.11701
362.555	-50.04327
362.77	25.81715
362.986	61.65088
363.201	17.38667
363.416	-10.00976
363.631	8.95656
363.847	13.17157
364.062	25.81715
364.277	-37.40208
364.492	42.67924
364.707	38.46358
364.922	6.8491
365.138	-7.90249
365.353	15.2791
365.568	-5.79519
365.783	70.08331
365.998	-3.68787
366.213	-39.50901
366.428	-41.61591
366.643	34.24801
366.858	17.38667
367.073	34.24801
367.288	17.38667
367.503	-39.50901
367.718	-33.18815
367.933	67.97517
368.148	0.52684
368.363	30.03253
368.578	-18.43861
368.793	27.92483
369.008	51.11085
369.223	-56.36353
369.438	63.75895
369.653	15.2791
369.868	-102.70506
370.083	4.74166
370.298	-31.08114
370.513	-3.68787
370.728	-75.32294
370.943	4.74166
371.157	23.70949
371.372	67.97517
371.587	-39.50901
371.802	34.24801
372.017	13.17157
372.232	25.81715
372.446	-62.68356
372.661	65.86705
372.876	-28.97412
373.091	89.05761
373.306	67.97517
373.52	-10.00976
373.735	8.95656
373.95	51.11085
374.165	25.81715
374.379	-16.33143
374.594	-37.40208
374.809	82.73264
375.023	-66.89679
375.238	32.14026
375.453	4.74166
375.667	30.03253
375.882	-20.54576
376.097	42.67924
376.311	-16.33143
376.526	-14.22423
376.741	57.4348
376.955	57.4348
377.17	51.11085
377.384	67.97517
377.599	40.5714
377.813	0.52684
378.028	-22.65289
378.242	-22.65289
378.457	-1.58052
378.672	-54.2568
378.886	-47.93647
379.101	13.17157
379.315	-54.2568
379.53	38.46358
379.744	19.49425
379.958	-94.28026
380.173	25.81715
380.387	-14.22423
380.602	11.06405
380.816	-7.90249
381.031	-20.54576
381.245	19.49425
381.459	23.70949
381.674	11.06405
381.888	13.17157
382.103	34.24801
382.317	-26.86706
382.531	27.92483
382.746	13.17157
382.96	-7.90249
383.174	72.19148
383.388	-18.43861
383.603	0.52684
383.817	36.35578
384.031	67.97517
384.246	-33.18815
384.46	-50.04327
384.674	13.17157
384.888	80.62436
385.103	-66.89679
385.317	-33.18815
385.531	-60.57691
385.745	17.38667
385.959	-60.57691
386.174	-47.93647
386.388	-10.00976
386.602	42.67924
386.816	70.08331
387.03	-31.08114
387.244	-45.82964
387.458	-26.86706
387.672	0.52684
387.887	-50.04327
388.101	67.97517
388.315	53.21881
388.529	-12.11701
388.743	11.06405
388.957	17.38667
389.171	4.74166
389.385	49.00291
389.599	0.52684
389.813	11.06405
390.027	44.78711
390.241	-24.75999
390.455	2.63424
390.669	34.24801
390.883	2.63424
391.097	-14.22423
391.311	91.16598
391.525	4.74166
391.738	32.14026
391.952	8.95656
392.166	8.95656
392.38	11.06405
392.594	51.11085
392.808	-47.93647
393.022	42.67924
393.236	-16.33143
393.449	-28.97412
393.663	-47.93647
393.877	-10.00976
394.091	-66.89679
394.305	42.67924
394.518	-14.22423
394.732	-7.90249
394.946	-3.68787
395.16	-3.68787
395.373	57.4348
395.587	-77.42941
395.801	0.52684
396.015	8.95656
396.228	80.62436
396.442	40.5714
396.656	0.52684
396.869	2.63424
397.083	-20.54576
397.297	8.95656
397.51	46.895
397.724	-22.65289
397.938	70.08331
398.151	34.24801
398.365	21.60186
398.578	84.84094
398.792	61.65088
399.005	-3.68787
399.219	-54.2568
399.433	21.60186
399.646	-50.04327
399.86	86.94927
400.073	67.97517
400.287	4.74166
400.5	-71.10991
400.714	32.14026
400.927	19.49425
401.141	-43.72279
401.354	-47.93647
401.567	-7.90249
401.781	-7.90249
401.994	34.24801
402.208	70.08331
402.421	17.38667
402.635	-54.2568
402.848	4.74166
403.061	13.17157
403.275	-37.40208
403.488	-10.00976
403.701	34.24801
403.915	0.52684
404.128	46.895
404.341	-26.86706
404.555	25.81715
404.768	17.38667
404.981	8.95656
405.195	36.35578
405.408	42.67924
405.621	-1.58052
405.834	38.46358
406.048	-20.54576
406.261	78.51611
406.474	4.74166
406.687	-37.40208
406.9	4.74166
407.114	-16.33143
407.327	63.75895
407.54	-1.58052
407.753	2.63424
407.966	44.78711
408.179	4.74166
408.392	46.895
408.605	34.24801
408.819	59.54283
409.032	51.11085
409.245	-73.21644
409.458	78.51611
409.671	34.24801
409.884	61.65088
410.097	8.95656
410.31	25.81715
410.523	-7.90249
410.736	-16.33143
410.949	42.67924
411.162	0.52684
411.375	17.38667
411.588	-7.90249
411.801	-45.82964
412.014	8.95656
412.227	42.67924
412.44	-3.68787
412.653	-64.79019
412.865	70.08331
413.078	13.17157
413.291	46.895
413.504	51.11085
413.717	-33.18815
413.93	-7.90249
414.143	-14.22423
414.356	25.81715
414.568	53.21881
414.781	-1.58052
414.994	-45.82964
415.207	57.4348
415.42	-45.82964
415.632	-31.08114
415.845	8.95656
416.058	-18.43861
416.271	-35.29512
416.483	15.2791
416.696	34.24801
416.909	38.46358
417.121	97.49122
417.334	4.74166
417.547	-62.68356
417.759	-16.33143
417.972	-26.86706
418.185	8.95656
418.397	42.67924
418.61	2.63424
418.823	-24.75999
419.035	55.32679
419.248	34.24801
419.46	44.78711
419.673	44.78711
419.885	59.54283
420.098	17.38667
420.311	0.52684
420.523	-43.72279
420.736	8.95656
420.948	6.8491
421.161	59.54283
421.373	17.38667
421.586	-24.75999
421.798	8.95656
422.01	4.74166
422.223	-3.68787
422.435	-12.11701
422.648	36.35578
422.86	0.52684
423.073	13.17157
423.285	-12.11701
423.497	8.95656
423.71	-22.65289
423.922	25.81715
424.134	-16.33143
424.347	21.60186
424.559	63.75895
424.771	25.81715
424.984	-41.61591
425.196	46.895
425.408	0.52684
425.621	78.51611
425.833	-39.50901
426.045	53.21881
426.257	76.40788
426.47	23.70949
426.682	19.49425
426.894	25.81715
427.106	51.11085
427.318	-75.32294
427.531	17.38667
427.743	59.54283
427.955	21.60186
428.167	-35.29512
428.379	38.46358
428.591	51.11085
428.804	-52.15005
429.016	67.97517
429.228	-22.65289
429.44	101.70815
429.652	-47.93647
429.864	34.24801
430.076	44.78711
430.288	-47.93647
430.5	-14.22423
430.712	-10.00976
430.924	-79.53586
431.136	120.68545
431.348	72.19148
431.56	11.06405
431.772	-16.33143
431.984	-3.68787
432.196	-12.11701
432.408	27.92483
432.62	0.52684
432.832	-1.58052
433.044	95.38278
433.256	42.67924
433.468	49.00291
433.679	42.67924
433.891	34.24801
434.103	-16.33143
434.315	21.60186
434.527	17.38667
434.739	-22.65289
434.95	38.46358
435.162	67.97517
435.374	4.74166
435.586	13.17157
435.798	51.11085
436.009	2.63424
436.221	67.97517
436.433	19.49425
436.645	44.78711
436.856	32.14026
437.068	-47.93647
437.28	78.51611
437.491	67.97517
437.703	6.8491
437.915	23.70949
438.126	86.94927
438.338	2.63424
438.55	-12.11701
438.761	-14.22423
438.973	19.49425
439.184	-12.11701
439.396	51.11085
439.608	59.54283
439.819	46.895
440.031	0.52684
440.242	44.78711
440.454	11.06405
440.665	-20.54576
440.877	34.24801
441.088	-94.28026
441.3	38.46358
441.511	-31.08114
441.723	44.78711
441.934	44.78711
442.146	57.4348
442.357	13.17157
442.569	25.81715
442.78	17.38667
442.991	4.74166
443.203	-37.40208
443.414	118.57677
443.626	59.54283
443.837	-28.97412
444.048	76.40788
444.26	30.03253
444.471	4.74166
444.682	59.54283
444.894	17.38667
445.105	80.62436
445.316	4.74166
445.528	-22.65289
445.739	53.21881
445.95	42.67924
446.161	-24.75999
446.373	70.08331
446.584	-7.90249
446.795	34.24801
447.006	61.65088
447.217	40.5714
447.429	4.74166
447.64	13.17157
447.851	49.00291
448.062	57.4348
448.273	46.895
448.484	36.35578
448.695	-12.11701
448.907	36.35578
449.118	61.65088
449.329	-14.22423
449.54	-5.79519
449.751	80.62436
449.962	-1.58052
450.173	44.78711
450.384	-33.18815
450.595	4.74166
450.806	55.32679
451.017	76.40788
451.228	-14.22423
451.439	70.08331
451.65	25.81715
451.861	4.74166
452.072	25.81715
452.283	11.06405
452.494	55.32679
452.705	-43.72279
452.915	17.38667
453.126	0.52684
453.337	-39.50901
453.548	61.65088
453.759	93.27437
453.97	-24.75999
454.181	44.78711
454.391	63.75895
454.602	32.14026
454.813	23.70949
455.024	63.75895
455.235	53.21881
455.445	30.03253
455.656	101.70815
455.867	-16.33143
456.078	30.03253
456.288	38.46358
456.499	49.00291
456.71	25.81715
456.921	42.67924
457.131	-5.79519
457.342	-7.90249
457.553	-43.72279
457.763	-16.33143
457.974	46.895
458.184	42.67924
458.395	15.2791
458.606	53.21881
458.816	-22.65289
459.027	42.67924
459.237	34.24801
459.448	42.67924
459.659	15.2791
459.869	-1.58052
460.08	27.92483
460.29	76.40788
460.501	32.14026
460.711	55.32679
460.922	38.46358
461.132	38.46358
461.343	-22.65289
461.553	19.49425
461.764	61.65088
461.974	17.38667
462.184	0.52684
462.395	122.79415
462.605	4.74166
462.816	25.81715
463.026	30.03253
463.236	44.78711
463.447	-33.18815
463.657	84.84094
463.867	86.94927
464.078	19.49425
464.288	42.67924
464.498	34.24801
464.709	0.52684
464.919	86.94927
465.129	-3.68787
465.339	101.70815
465.55	0.52684
465.76	-7.90249
465.97	40.5714
466.18	42.67924
466.391	8.95656
466.601	89.05761
466.811	51.11085
467.021	25.81715
467.231	124.90287
467.441	67.97517
467.651	-3.68787
467.862	25.81715
468.072	55.32679
468.282	137.55563
468.492	145.99124
468.702	84.84094
468.912	72.19148
469.122	95.38278
469.332	40.5714
469.542	-33.18815
469.752	67.97517
469.962	11.06405
470.172	127.01161
470.382	46.895
470.592	103.81665
470.802	110.14229
471.012	108.03372
471.222	97.49122
471.432	51.11085
471.642	36.35578
471.852	61.65088
472.062	93.27437
472.272	53.21881
472.482	57.4348
472.691	84.84094
472.901	63.75895
473.111	80.62436
473.321	118.57677
473.531	78.51611
473.741	131.22915
473.95	61.65088
474.16	51.11085
474.37	162.86346
474.58	105.92518
474.79	173.40929
474.999	97.49122
475.209	105.92518
475.419	110.14229
475.628	169.1909
475.838	129.12037
476.048	131.22915
476.258	42.67924
476.467	95.38278
476.677	93.27437
476.886	108.03372
477.096	101.70815
477.306	135.44678
477.515	110.14229
477.725	127.01161
477.935	139.6645
478.144	179.73703
478.354	156.53622
478.563	179.73703
478.773	243.02442
478.982	160.75436
479.192	95.38278
479.401	164.97259
479.611	143.8823
479.82	270.45441
480.03	196.6119
480.239	224.03632
480.449	230.36551
480.658	186.06495
480.868	249.35413
481.077	179.73703
481.287	219.81696
481.496	211.37848
481.705	188.1743
481.915	299.99796
482.124	221.92663
482.333	295.77723
482.543	335.87706
482.752	312.66058
482.961	278.89506
483.171	314.77108
483.38	274.6747
483.589	413.98415
483.799	312.66058
484.008	356.9848
484.217	257.79401
484.426	380.20529
484.636	378.09425
484.845	350.65229
485.054	443.54405
485.263	439.32102
485.472	375.98323
485.682	515.34488
485.891	430.87514
486.1	361.20655
486.309	392.87187
486.518	477.33052
486.727	481.5541
486.936	517.45693
487.146	430.87514
487.355	492.11332
487.564	428.76371
487.773	595.61239
487.982	506.89684
488.191	519.56899
488.4	574.48747
488.609	498.44903
488.818	650.54313
489.027	629.41493
489.236	726.61431
489.445	756.20138
489.654	591.3873
489.863	762.54173
490.072	692.80309
490.281	633.64047
490.49	688.57688
490.698	718.16124
490.907	646.31739
491.116	699.14248
491.325	718.16124
491.534	608.28796
491.743	705.48196
491.952	899.93677
492.16	760.42827
492.369	851.31577
492.578	832.29139
492.787	1014.10618
492.996	870.34086
493.204	904.16489
493.413	906.27896
493.622	933.76257
493.831	743.52096
494.039	1026.79287
494.248	874.56875
494.457	1009.87733
494.665	889.36662
494.874	1020.4495
495.083	1136.75245
495.291	1191.73692
495.5	1094.45868
495.709	1096.57332
495.917	1107.14661
496.126	1303.82752
496.335	1221.34497
496.543	1189.62209
496.752	1073.31252
496.96	1166.35914
497.169	1035.25078
497.377	1280.56283
497.586	1295.3676
497.794	1335.55247
498.003	1223.45986
498.211	1310.17248
498.42	1305.9425
498.628	1500.52573
498.837	1238.26414
499.045	1470.91504
499.254	1225.57474
499.462	1528.02125
499.671	1555.51661
499.879	1580.89675
500.087	1487.83544
500.296	1521.67614
500.504	1492.06554
500.713	1473.03009
500.921	1384.19805
501.129	1542.82647
501.338	1399.00334
501.546	1690.87405
501.754	1684.52939
501.962	1680.29961
502.171	1508.9859
502.379	1665.49526
502.587	1699.33356
502.795	1667.61017
503.004	1540.71144
503.212	1735.28588
503.42	1623.19644
503.628	1800.84331
503.837	1788.15508
504.045	1883.31288
504.253	1891.77087
504.461	1887.54189
504.669	1741.63031
504.877	1860.05297
505.085	1895.99984
505.294	1864.28209
505.502	1885.42739
505.71	2033.42853
505.918	1889.65638
506.126	1940.40265
506.334	1923.48759
506.542	2107.41705
506.75	1970.00311
506.958	2164.48761
507.166	2010.17322
507.374	2056.68301
507.582	2084.16447
507.79	2244.79895
507.998	2092.62006
508.206	2088.39228
508.414	2200.41789
508.622	2204.64483
508.83	2179.28272
509.037	2295.51532
509.245	1984.80289
509.453	2278.61046
509.661	2194.07743
509.869	2342.00056
510.077	2325.09738
510.285	2481.42678
510.492	2354.67753
510.7	2342.00056
510.908	2308.19358
511.116	2504.65991
511.324	2280.7236
511.531	2542.67481
511.739	2420.16939
511.947	2580.68592
512.155	2405.38178
512.362	2572.23934
512.57	2430.73166
512.778	2663.02988
512.985	2479.31461
513.193	2692.58462
513.401	2536.33925
513.608	2618.69315
513.816	2576.46265
514.024	2595.46698
514.231	2684.14066
514.439	2730.57984
514.646	2781.23347
514.854	2806.55736
515.061	2536.33925
515.269	2806.55736
515.477	2707.36104
515.684	2945.8026
515.892	2574.351
516.099	2907.83283
516.307	2663.02988
516.514	2901.50408
516.722	2701.02836
516.929	2912.05193
517.136	2675.6965
517.344	2933.14654
517.551	2707.36104
517.759	3025.94515
517.966	2928.92773
518.173	3148.22501
518.381	3002.74824
518.588	3028.05387
518.796	3114.49795
519.003	3089.19997
519.21	3078.65848
519.418	3158.76387
519.625	3127.14608
519.832	3213.55937
520.039	3135.57784
520.247	3127.14608
520.454	3101.84925
520.661	3333.64847
520.868	3139.79363
521.076	3396.83085
521.283	3243.06001
521.49	3371.55978
521.697	3144.00935
521.904	3392.61918
522.112	3160.87159
522.319	3430.52164
522.526	3293.62489
522.733	3535.77575
522.94	3337.86111
523.147	3443.15452
523.354	3348.39243
523.561	3537.88037
523.768	3283.09135
523.975	3662.01988
524.183	3640.98389
524.39	3794.5025
524.597	3657.81284
524.804	3756.65817
525.011	3531.56646
525.218	3994.12988
525.425	3683.05397
525.632	3727.21933
525.838	3584.17729
526.045	3777.68358
526.252	3657.81284
526.459	3973.12504
526.666	3619.946
526.873	3968.92383
527.08	3971.02445
527.287	3792.40021
527.494	3872.2736
527.701	4052.93253
527.907	3939.51306
528.114	4076.02914
528.321	4109.61973
528.528	4044.53314
528.735	4071.82994
528.941	4166.29171
529.148	4099.12324
529.355	4027.73337
529.562	4008.83205
529.768	4325.7299
529.975	4015.13268
530.182	4262.80851
530.388	4040.33332
530.595	4355.08658
530.802	4134.80916
531.008	4539.51635
531.215	4367.66671
531.422	4522.75704
531.628	4103.3219
531.835	4428.45965
532.042	4254.41753
532.248	4285.88193
532.455	4094.9245
532.661	4480.8526
532.868	4388.63187
533.074	4258.61306
533.281	4371.85992
533.487	4575.12515
533.694	4313.14717
533.9	4813.74629
534.107	4317.3415
534.313	4880.67476
534.52	4524.85203
534.726	4723.77448
534.933	4476.66167
535.139	4671.44608
535.345	4746.79452
535.552	4861.85349
535.758	4853.48789
535.965	4987.29354
536.171	4522.75704
536.377	4981.0235
536.584	4658.88516
536.79	4941.30845
536.996	4893.22124
537.203	4995.65327
537.409	4949.6702
537.615	5001.92282
537.821	4753.07223
538.028	4983.11354
538.234	4958.03159
538.44	4993.56337
538.646	4960.12188
538.853	5093.85237
539.059	5001.92282
539.265	5200.35089
539.471	5049.98249
539.677	5183.64924
539.883	5208.70115
540.09	5463.20437
540.296	5290.09665
540.502	5321.39314
540.708	5166.9461
540.914	5352.68435
541.12	5244.18561
541.326	5408.99525
541.532	5196.17562
541.738	5292.18324
541.944	5371.45655
542.15	5536.15307
542.356	5492.38731
542.562	5529.90145
542.768	5377.71353
542.974	5596.57442
543.18	5335.99636
543.386	5588.24162
543.592	5471.54282
543.798	5654.89347
544.004	5623.65342
544.21	5771.47606
544.415	5502.80867
544.621	5727.76626
544.827	5744.41884
545.033	5915.0207
545.239	5686.1282
545.445	5906.70234
545.651	5681.96388
545.856	6000.26214
546.062	5829.7396
546.268	5811.01406
546.474	5802.69098
546.679	5825.57854
546.885	5692.37451
547.091	5713.19402
547.297	5573.65831
547.502	5933.73563
547.708	5808.93332
547.914	5933.73563
548.119	5977.39638
548.325	6170.62628
548.531	5746.50031
548.736	5908.78196
548.942	5983.63278
549.147	5952.44865
549.353	6187.23871
549.559	6295.18293
549.764	5971.15976
549.97	5994.02631
550.175	6021.04673
550.381	6425.87681
550.586	5958.6859
550.792	6282.73106
550.997	6183.08574
551.203	6403.06392
551.408	6320.08415
551.614	6357.42966
551.819	6060.53095
552.025	6378.1739
552.23	6338.75785
552.435	6467.3476
552.641	6589.63234
552.846	6291.0324
553.052	6371.95088
553.257	6440.39264
553.462	6763.59409
553.668	6517.10027
553.873	6519.17301
554.078	6442.46624
554.283	6581.34439
554.489	6838.09963
554.694	6639.35225
554.899	6614.49396
555.105	6645.56631
555.31	6821.5454
555.515	6502.59046
555.72	6809.12877
555.925	6711.8367
556.131	7111.03543
556.336	6726.33021
556.541	6794.64166
556.746	6792.57198
556.951	6850.51435
557.156	6738.75233
557.361	6848.44529
557.567	6695.27131
557.772	7020.10043
557.977	6593.77617
558.182	6995.29244
558.387	6821.5454
558.592	6767.73406
558.797	6964.27789
559.002	6929.12193
559.207	6956.00648
559.412	7106.90296
559.617	6997.35989
559.822	7222.57847
560.027	7162.68378
560.232	7049.039
560.437	6929.12193
560.642	7123.4323
560.847	7197.79672
561.051	7259.74513
561.256	7255.61586
561.461	7365.01198
561.666	7183.33923
561.871	7185.40465
562.076	6966.34568
562.281	7183.33923
562.485	7080.03973
562.69	7189.53543
562.895	7018.03322
563.1	7468.15965
563.305	7139.96022
563.509	7470.22205
563.714	7210.188
563.919	7655.75016
564.123	7168.88065
564.328	7416.5926
564.533	7218.4484
564.737	7268.00342
564.942	7470.22205
565.147	7492.90703
565.351	7595.98779
565.556	7682.53439
565.761	7478.47144
565.965	7581.55971
566.17	7352.6306
566.374	7470.22205
566.579	7620.71921
566.784	7824.63731
566.988	7641.32639
567.193	7503.21752
567.397	7758.74692
567.602	7777.28075
567.806	7631.02307
568.011	7731.97282
568.215	7853.45765
568.42	7843.16514
568.624	7626.90159
568.828	7766.98439
569.033	7766.98439
569.237	7915.20185
569.442	7511.46553
569.646	7754.62806
569.85	7746.39008
570.055	7993.3846
570.259	7886.3902
570.463	8001.61265
570.668	7637.20513
570.872	7853.45765
571.076	7931.66384
571.281	8112.65952
571.485	8161.99484
571.689	8443.3996
571.893	7966.6412
572.098	8149.66209
572.302	8110.60363
572.506	8016.01094
572.71	7820.51979
572.914	8211.31867
573.119	7985.15623
573.323	8424.92436
573.527	8242.14026
573.731	8396.182
573.935	8192.82357
574.139	8248.30405
574.343	8141.43985
574.547	8281.17458
574.751	8139.38425
574.955	8515.23301
575.159	8198.98879
575.364	8392.07565
575.568	8353.06137
575.772	8377.70278
575.976	8198.98879
576.18	8336.63221
576.383	8238.03097
576.587	8400.28829
576.791	8348.9542
576.995	8576.78599
577.199	8498.816
577.403	8406.44756
577.607	8790.03966
577.811	8576.78599
578.015	8595.24857
578.219	8617.8119
578.422	8835.12558
578.626	8679.33676
578.83	8519.33707
579.034	8609.60731
579.238	8486.50245
579.442	8658.83033
579.645	8412.60667
579.849	8746.99488
580.053	8892.49505
580.257	8810.53435
580.46	8673.18503
580.664	8841.27299
580.868	8675.23562
581.071	8872.00757
581.275	8726.49454
581.479	8921.17452
581.682	8808.48496
581.886	8650.62724
582.09	8833.07641
582.293	8999.00126
582.497	8687.53881
582.7	9091.13176
582.904	9011.28737
583.107	9267.10658
583.311	8927.31966
583.515	9230.28501
583.718	9048.14191
583.922	9275.28842
584.125	9148.43972
584.329	9191.41188
584.532	9064.5199
584.735	9297.78708
584.939	8808.48496
585.142	9183.22729
585.346	9039.9525
585.549	8994.90575
585.753	9019.47776
585.956	9168.90359
586.159	9060.42551
586.363	9344.82326
586.566	9312.10337
586.769	9254.83333
586.973	9271.19753
587.176	9371.40506
587.379	9332.55379
587.582	9635.03044
587.786	8990.81017
587.989	9571.70276
588.192	9397.98409
588.395	9512.44704
588.599	9553.31448
588.802	9798.38809
589.005	9207.78026
589.208	9555.35769
589.411	9256.87891
589.615	9559.44405
589.818	9346.86811
590.021	9628.90261
590.224	9414.33904
590.427	9569.65968
590.63	9534.92492
590.833	9722.84734
591.036	9820.84217
591.239	9661.58274
591.442	9530.83817
591.645	9890.23428
591.848	9659.54035
592.051	9937.16633
592.254	9661.58274
592.457	10077.91652
592.66	9900.43756
592.863	9763.68275
593.066	9957.56916
593.269	10234.9063
593.472	9771.84911
593.675	9959.60936
593.878	9796.34672
594.081	9896.35629
594.284	9871.86745
594.486	9992.25064
594.689	9975.93046
594.892	10041.20565
595.095	10065.68008
595.298	10035.08673
595.5	10028.96767
595.703	10204.3303
595.906	10020.80873
596.109	10175.78991
596.311	10031.00737
596.514	10151.32458
596.717	10204.3303
596.92	10507.9187
597.122	10110.54457
597.325	10489.58937
597.528	10218.59948
597.73	10685.04979
597.933	10536.42893
598.136	10367.36721
598.338	10371.44204
598.541	10412.18743
598.743	10410.15029
598.946	10452.92762
599.148	10393.85265
599.351	10294.01124
599.554	10611.76555
599.756	10505.88216
599.959	10707.43904
600.161	10564.93669
600.363	10402.00158
600.566	10550.68312
600.768	10355.14241
600.971	10742.03775
601.173	10487.55272
601.376	10996.33609
601.578	10707.43904
601.78	10835.64056
601.983	10593.442
602.185	10884.46698
602.388	10744.07286
602.59	10756.28327
602.792	10369.40463
602.995	10847.84779
603.197	10707.43904
603.399	10729.82683
603.601	10475.33252
603.804	10839.70968
604.006	10898.70678
604.208	11045.14109
604.41	10827.50217
604.613	11053.27464
604.815	10752.21318
605.017	10998.36976
605.219	10664.69464
605.421	10560.86431
605.623	10540.50162
605.826	11156.96222
606.028	10896.67255
606.23	11041.07425
606.432	10868.19225
606.634	11063.44133
606.836	10904.80937
607.038	11287.04107
607.24	11110.20462
607.442	10969.89738
607.644	10864.12345
607.846	11173.22442
608.048	10766.45828
608.25	10762.38831
608.452	10709.47435
608.654	11126.46877
608.856	10831.57139
609.058	11043.10767
609.26	10965.82971
609.462	11209.81189
609.664	11104.10538
609.866	11024.80644
610.067	10917.01426
610.269	11191.51858
610.471	11026.83996
610.673	11280.94457
610.875	10951.59254
611.077	11110.20462
611.278	11079.70747
611.48	11073.60775
611.682	10978.03256
611.884	11106.13847
612.085	11122.4028
612.287	11224.03944
612.489	10925.15062
612.69	11217.94198
612.892	11232.16924
613.094	11266.71904
613.295	11089.87346
613.497	11295.16959
613.699	11193.55121
613.9	11228.10436
614.102	11187.45328
614.304	11364.25554
614.505	11067.50793
614.707	11295.16959
614.908	11378.47769
615.11	11341.90548
615.311	11100.03917
615.513	11199.64904
615.714	11187.45328
615.916	11154.9294
616.117	11012.60513
616.319	11524.73487
616.52	11116.30376
616.722	11232.16924
616.923	11352.06475
617.124	11804.92664
617.326	11098.00605
617.527	11173.22442
617.729	11246.39599
617.93	11358.16019
618.131	11463.80045
618.333	11417.07821
618.534	11538.95168
618.735	11624.24293
618.937	11348.00107
619.138	11341.90548
619.339	11410.98363
619.54	11453.64388
619.742	11565.3531
619.943	11360.19198
620.144	11305.33002
620.345	11559.2606
620.546	11396.76259
620.748	11668.91286
620.949	11315.4902
621.15	11756.20979
621.351	11301.26588
621.552	11727.78932
621.753	11733.87957
621.954	11540.98261
622.155	11232.16924
622.356	11549.10626
622.558	11352.06475
622.759	11415.0467
622.96	11512.54867
623.161	11634.39557
623.362	11165.0934
623.563	11701.39735
623.764	11475.98802
623.965	11951.04799
624.166	11735.90963
624.366	11642.51752
624.567	11563.32227
624.768	11498.33101
624.969	11360.19198
625.17	11514.57973
625.371	11701.39735
625.572	11664.85214
625.773	11605.9676
625.973	11882.05161
626.174	11756.20979
626.375	11725.75923
626.576	11689.21593
626.777	11612.05946
626.977	11565.3531
627.178	11764.32961
627.379	11445.51845
627.58	11904.37501
627.78	11630.33454
627.981	11610.02885
628.182	11672.97355
628.382	11823.19418
628.583	11571.44551
628.784	11798.8373
628.984	11618.15124
629.185	12117.41301
629.386	11510.51761
629.586	12042.35238
629.787	11855.66812
629.987	11776.50908
630.188	11800.86709
630.388	11904.37501
630.589	11668.91286
630.79	11871.90428
630.99	11660.79138
631.191	12084.95565
631.391	11650.63933
631.591	11944.96046
631.792	12155.9536
631.992	12034.23709
632.193	12214.77352
632.393	12015.97721
632.594	11904.37501
632.794	12060.61135
632.994	11932.78516
633.195	12026.12166
633.395	11867.84529
633.595	12066.69753
633.796	11802.89687
633.996	12297.9223
634.196	11949.01882
634.397	12261.41944
634.597	11955.10631
634.797	12247.22326
634.997	11946.98964
635.198	12074.81233
635.398	11780.56883
635.598	12003.8036
635.798	12070.75494
635.998	12042.35238
636.199	11882.05161
636.399	12198.54795
636.599	11892.19873
636.799	12257.36342
636.999	11916.55099
637.199	12062.64008
637.399	11922.63886
637.599	12036.26592
637.799	12131.61249
637.999	12462.15742
638.199	12048.43877
638.399	12283.72701
638.599	12354.7
638.799	12577.7043
638.999	12212.74535
639.199	12151.89682
639.399	12239.111
639.599	12301.97803
639.799	12295.89442
639.999	12466.21205
640.199	12127.55553
640.399	12510.81127
640.599	12115.38448
640.799	12543.24512
640.998	12318.20067
641.198	12395.25219
641.398	12026.12166
641.598	12565.54245
641.798	12233.02673
641.997	12368.89357
642.197	12504.72975
642.397	12539.19098
642.597	12658.7777
642.796	12579.73126
642.996	12312.11723
643.196	12490.53929
643.395	12368.89357
643.595	12492.56652
643.795	12664.85782
643.994	12604.05423
644.194	12648.64406
644.394	12940.43562
644.593	12658.7777
644.793	12786.44902
644.992	12873.57685
645.192	12914.09801
645.392	12766.18526
645.591	12944.48749
645.791	12879.65516
645.99	12727.68254
646.19	12677.01788
646.389	12758.07959
646.589	12490.53929
646.788	12903.96792
646.987	12520.94703
647.187	12930.30588
647.386	12476.34851
647.586	12737.81504
647.785	12587.83902
647.984	12879.65516
648.184	13003.2372
648.383	12760.10602
648.582	12565.54245
648.782	12855.34163
648.981	12500.67536
649.18	12672.96455
649.38	12970.8241
649.579	13149.08058
649.778	12796.58069
649.977	13169.33466
650.177	12952.59115
650.376	12908.01997
650.575	12940.43562
650.774	13140.97882
650.973	12626.34951
651.173	12762.13244
651.372	12762.13244
651.571	12893.83769
651.77	12885.73342
651.969	12758.07959
652.168	12871.55074
652.367	13193.63896
652.566	12816.8436
652.765	12822.92237
652.964	13017.41752
653.163	12966.77237
653.362	12970.8241
653.561	13157.18227
653.76	13027.54618
653.959	13007.28874
654.158	13290.84976
654.357	13047.80312
654.556	12910.04599
654.755	13187.56295
654.954	13045.77745
655.153	13007.28874
655.352	13015.39178
655.551	12946.51341
655.749	13363.75141
655.948	13140.97882
656.147	13132.87698
656.346	13333.37637
656.545	13037.67471
656.743	13124.77507
656.942	12978.92749
657.141	13076.16201
657.34	13151.10601
657.538	13264.52282
657.737	12968.79823
657.936	13392.10062
658.135	13347.5515
658.333	13436.6478
658.532	13280.7241
658.731	13096.41778
658.929	13169.33466
659.128	13189.58829
659.326	13049.82879
659.525	13278.69895
659.724	13134.90245
659.922	13305.0255
660.121	13173.38542
660.319	13410.32469
660.518	13145.02971
660.716	13159.20768
660.915	13033.62331
661.113	13430.5733
661.312	13256.42208
661.51	13616.84292
661.709	13313.12583
661.907	13418.42418
662.105	13307.05059
662.304	13418.42418
662.502	13230.09419
662.701	13430.5733
662.899	13213.89204
663.097	13507.5145
663.296	13335.4014
663.494	13558.13079
663.692	12978.92749
663.891	13428.54846
664.089	12859.39394
664.287	13471.06935
664.485	13217.94261
664.684	13626.96541
664.882	13307.05059
665.08	13226.04368
665.278	13270.59833
665.476	13665.4301
665.675	13201.74025
665.873	13460.94548
666.071	13252.37169
666.269	13752.47745
666.467	13533.83525
666.665	13628.9899
666.863	13258.44727
667.061	13590.52405
667.259	13298.95021
667.457	13201.74025
667.655	13157.18227
667.853	13511.56389
668.051	13232.11944
668.249	13442.72227
668.447	13331.35134
668.645	13687.69859
668.843	13543.95846
669.041	13602.6713
669.239	13252.37169
669.437	13258.44727
669.635	13418.42418
669.833	13424.49876
670.031	13420.44905
670.229	13742.35596
670.426	13594.57315
670.624	13410.32469
670.822	13100.46888
671.02	13250.34648
671.218	13226.04368
671.415	13074.13641
671.613	13379.95105
671.811	13282.74924
672.009	13252.37169
672.206	13661.38124
672.404	13440.69745
672.602	13414.37445
672.799	13323.25115
672.997	13315.15091
673.195	13228.06894
673.392	13337.42643
673.59	13305.0255
673.788	13416.39932
673.985	13270.59833
674.183	13292.87488
674.38	13495.36625
674.578	13294.89999
674.775	13286.79951
674.973	13487.26734
675.17	13428.54846
675.368	13276.67381
675.565	13351.6015
675.763	13566.22919
675.96	13562.18
676.158	13600.64676
676.355	13400.20025
676.553	13525.73663
676.75	13487.26734
676.947	13880.00181
677.145	13136.92791
677.342	13315.15091
677.539	13355.65149
677.737	13323.25115
677.934	13136.92791
678.131	13584.45039
678.329	13315.15091
678.526	13232.11944
678.723	13333.37637
678.92	13509.53919
679.118	12903.96792
679.315	13122.74958
679.512	13098.44334
679.709	13495.36625
679.906	12989.05662
680.104	13331.35134
680.301	13057.9314
680.498	13309.07568
680.695	12980.95333
680.892	13473.09411
681.089	12987.03081
681.286	13234.14469
681.483	12946.51341
681.68	13386.02585
681.877	13254.39689
682.075	13606.72035
682.272	13118.69859
682.469	13592.5486
682.665	13017.41752
682.862	13120.72408
683.059	13126.80055
683.256	13452.84631
683.453	12922.20198
683.65	13195.66429
683.847	13371.85126
684.044	13163.25849
684.241	12853.31547
684.438	13244.27084
684.635	12829.00109
684.831	13136.92791
685.028	12976.90165
685.225	13165.28388
685.422	12956.64295
685.619	13240.22039
685.815	12867.49849
686.012	12768.21166
686.209	12796.58069
686.405	13045.77745
686.602	13064.00832
686.799	12857.36779
686.996	12914.09801
687.192	12948.53933
687.389	12749.97384
687.586	12920.176
687.782	12908.01997
687.979	13219.96788
688.175	12600.00047
688.372	12707.41712
688.568	12747.94739
688.765	13039.7004
688.962	12926.25394
689.158	13102.49442
689.355	12867.49849
689.551	12780.36995
689.748	12942.46156
689.944	13221.99315
690.14	12914.09801
690.337	12958.66885
690.533	13357.67647
690.73	12863.44623
690.926	12948.53933
691.123	12565.54245
691.319	13104.51996
691.515	12717.5499
691.712	12543.24512
691.908	12768.21166
692.104	12778.34358
692.301	12934.35779
692.497	12545.27218
692.693	12871.55074
692.889	12873.57685
693.086	12518.91989
693.282	12677.01788
693.478	12936.38374
693.674	12482.43031
693.87	12970.8241
694.067	12547.29923
694.263	12784.42267
694.459	12681.07119
694.655	12644.59056
694.851	12764.15885
695.047	12697.28419
695.243	12772.26444
695.439	12924.22796
695.635	12788.47536
695.831	12849.26313
696.027	12749.97384
696.224	12756.05316
696.42	12500.67536
696.615	12837.10597
696.811	12863.44623
697.007	12537.1639
697.203	12541.21805
697.399	12620.26906
697.595	12516.89274
697.791	12496.62095
697.987	12374.97643
698.183	13015.39178
698.379	12328.3396
698.575	12768.21166
698.77	12383.08682
698.966	12549.32628
699.162	12265.47542
699.358	12579.73126
699.554	12372.94882
699.749	13017.41752
699.945	12484.45757
700.141	12539.19098
700.337	12506.75693
700.532	12322.25626
700.728	12470.26666
700.924	12395.25219
701.119	12417.55474
701.315	12174.20872
701.511	12334.42287
701.706	12654.72426
701.902	12415.52727
702.097	12626.34951
702.293	12861.42008
702.489	12650.6708
702.684	12752.00029
702.88	12670.93788
703.075	12334.42287
703.271	12324.28405
703.466	12443.91126
703.662	12567.56944
703.857	12387.14197
704.053	12484.45757
704.248	12259.39143
704.443	12342.5338
704.639	12346.58923
704.834	12362.81065
705.03	12508.7841
705.225	12383.08682
705.42	12147.84001
705.616	12360.783
705.811	12117.41301
706.006	12370.9212
706.202	12070.75494
706.397	12486.48481
706.592	12230.99862
706.787	12391.19709
706.983	12350.64463
707.178	12486.48481
707.373	12056.55385
707.568	12413.49979
707.763	12042.35238
707.959	12486.48481
708.154	12397.27973
708.349	12464.18474
708.544	12405.38981
708.739	12387.14197
708.934	11979.45553
709.129	12020.03502
709.324	12089.01293
709.519	12182.32192
709.714	12005.83256
709.909	12099.15599
710.104	11928.72667
710.299	12379.03164
710.494	12439.85648
710.689	12377.00404
710.884	12086.98429
711.079	12046.40999
711.274	12068.72624
711.469	12168.12375
711.664	12439.85648
711.859	12537.1639
712.054	12103.21315
712.249	12001.77464
712.443	11993.65871
712.638	11953.07715
712.833	11973.36833
713.028	12393.22464
713.223	11859.72721
713.417	12074.81233
713.612	12326.31183
713.807	12395.25219
714.002	12407.41732
714.196	12188.40674
714.391	12086.98429
714.586	12074.81233
714.78	11813.04563
714.975	12060.61135
715.17	12149.86842
715.364	12202.60439
715.559	12034.23709
715.754	11752.14983
715.948	11668.91286
716.143	11953.07715
716.337	11664.85214
716.532	11892.19873
716.726	11932.78516
716.921	11938.87285
717.115	12111.3274
717.31	12135.66941
717.504	11934.8144
717.699	11999.74567
717.893	11697.33691
718.088	11930.75592
718.282	11713.57845
718.476	11942.93126
718.671	11603.93697
718.865	12070.75494
719.059	11851.60899
719.254	11949.01882
719.448	11827.25354
719.642	11819.13479
719.837	11733.87957
720.031	11782.5987
720.225	11339.87359
720.419	11808.98615
720.614	11567.38391
720.808	11790.71807
721.002	11677.0342
721.196	11711.54829
721.39	11624.24293
721.585	11774.47919
721.779	11439.42427
721.973	11802.89687
722.167	11360.19198
722.361	11575.50707
722.555	11597.845
722.749	11679.06451
722.943	11526.76587
723.137	11577.53784
723.331	11502.39325
723.525	11766.35954
723.719	11662.82176
723.913	11569.41471
724.107	11473.95679
724.301	11746.05982
724.495	11516.61078
724.689	11563.32227
724.883	11295.16959
725.077	11579.56859
725.271	11392.69935
725.465	11451.61254
725.659	11248.42834
725.853	11441.45567
726.046	11634.39557
726.24	11587.69153
726.434	11384.57274
726.628	11441.45567
726.822	11313.45818
727.015	11543.01354
727.209	11250.46068
727.403	11419.10972
727.596	11256.55764
727.79	11345.96921
727.984	11597.845
728.177	11581.59934
728.371	11337.8417
728.565	11526.76587
728.758	11500.36213
728.952	11737.93969
729.146	11693.27644
729.339	11959.16459
729.533	11616.12065
729.726	11518.64182
729.92	11492.23758
730.113	11522.70386
730.307	11408.95208
730.5	11473.95679
730.694	11417.07821
730.887	11607.99823
731.081	11516.61078
731.274	11433.33001
731.468	11622.21238
731.661	11451.61254
731.854	11494.26873
732.048	11368.31906
732.241	11291.10535
732.435	11595.81432
732.628	11614.09006
732.821	11447.54982
733.014	11343.93735
733.208	11922.63886
733.401	11303.29796
733.594	11256.55764
733.788	11392.69935
733.981	11285.00891
734.174	11388.63606
734.367	11461.76916
734.56	11638.45657
734.754	11563.32227
734.947	11406.92052
735.14	11329.71402
735.333	11404.88896
735.526	11425.20419
735.719	11354.09657
735.912	11506.45545
736.105	11386.60441
736.298	11400.82579
736.491	11268.75129
736.684	11319.5542
736.877	11287.04107
737.07	10939.38882
737.263	11195.58383
737.456	11392.69935
737.649	11295.16959
737.842	11142.73224
738.035	11256.55764
738.228	11053.27464
738.421	11024.80644
738.614	11506.45545
738.807	11156.96222
739	11091.90662
739.192	10923.11655
739.385	11226.0719
739.578	11014.63871
739.771	10837.67512
739.964	10666.73021
740.156	11116.30376
740.349	11116.30376
740.542	11069.54122
740.735	10982.10009
740.927	11041.07425
741.12	10817.32892
741.313	11122.4028
741.505	11148.83087
741.698	10900.74099
741.891	10910.91187
742.083	11256.55764
742.276	11295.16959
742.468	11297.2017
742.661	11335.80979
742.854	11154.9294
743.046	11077.67424
743.239	11144.76513
743.431	11244.36363
743.624	10921.08246
743.816	11024.80644
744.009	11126.46877
744.201	10965.82971
744.393	10969.89738
744.586	10742.03775
744.778	10847.84779
744.971	10971.93119
745.163	10772.56315
745.355	10986.16757
745.548	10933.2868
745.74	10898.70678
745.932	10770.5282
746.125	10827.50217
746.317	10841.74422
746.509	10760.35331
746.702	10882.43268
746.894	10862.08903
747.086	10927.18468
747.278	10929.21873
747.471	11138.66644
747.663	11020.73938
747.855	11126.46877
748.047	11104.10538
748.239	10998.36976
748.431	10805.12064
748.623	10843.77876
748.815	10839.70968
749.008	11030.90695
749.2	10831.57139
749.392	10794.94675
749.584	10807.15538
749.776	11055.308
749.968	10662.65906
750.16	11106.13847
750.352	10717.61549
750.544	10782.73769
750.736	10827.50217
750.928	10862.08903
751.12	10526.24699
751.311	10587.33393
751.503	10786.80742
751.695	10689.12067
751.887	10414.22457
752.079	10967.86355
752.271	10786.80742
752.463	11193.55121
752.654	11004.4707
752.846	10855.98571
753.038	10491.62602
753.23	10308.27625
753.421	10285.85951
753.613	10479.40597
753.805	10489.58937
753.997	10597.51399
754.188	10526.24699
754.38	10326.61602
754.572	10448.85383
754.763	10536.42893
754.955	10340.87954
755.146	10481.44268
755.338	10499.77246
755.53	10452.92762
755.721	10562.90051
755.913	10583.26181
756.104	10638.23114
756.296	10646.37397
756.487	10416.26169
756.679	10740.00262
756.87	10210.44574
757.062	10151.32458
757.253	10446.81692
757.445	10524.21056
757.636	10489.58937
757.827	10615.83732
758.019	10294.01124
758.21	10334.76668
758.401	10061.60115
758.593	10444.78
758.784	10426.44709
758.975	10304.2006
759.167	10318.46515
759.358	10306.23843
759.549	10255.2886
759.74	10399.96436
759.932	10035.08673
760.123	10108.50542
760.314	9955.52894
760.505	10163.5575
760.696	10147.24683
760.888	10200.25327
761.079	9775.93219
761.27	10035.08673
761.461	9955.52894
761.652	10092.19173
761.843	9773.89066
762.034	9945.32764
762.225	9600.30422
762.416	10000.41038
762.607	9808.59472
762.798	10200.25327
762.989	9804.51211
763.18	9684.04804
763.371	9861.66314
763.562	9614.6038
763.753	9731.01491
763.944	10008.56989
764.135	9771.84911
764.326	9775.93219
764.517	9898.39694
764.708	9908.59992
764.899	9677.92132
765.089	9837.17127
765.28	9888.19358
765.471	9673.83677
765.662	9534.92492
765.853	9951.44846
766.043	9557.40088
766.234	9888.19358
766.425	9667.70983
766.615	9731.01491
766.806	9743.26581
766.997	9737.14043
767.187	9295.74183
767.378	9498.14193
767.569	9649.32816
767.759	9755.51616
767.95	9743.26581
768.141	9943.28733
768.331	9673.83677
768.522	9637.07301
768.712	9524.70794
768.903	9645.24317
769.093	9526.75137
769.284	9541.05491
769.474	9522.66449
769.665	9665.66748
769.855	9381.62809
770.046	9573.74583
770.236	9391.85071
770.426	9445.00178
770.617	9498.14193
770.807	9489.96723
770.998	9181.1811
771.188	9530.83817
771.378	9260.97003
771.569	9291.65128
771.759	9179.13489
771.949	9263.01557
772.139	9095.22563
772.33	9218.00995
772.52	9199.59621
772.71	9404.11732
772.9	9095.22563
773.09	9001.04899
773.281	9009.23973
773.471	9285.51533
773.661	9033.81026
773.851	8790.03966
774.041	8769.54315
774.231	9101.36631
774.421	8630.11821
774.611	9125.92748
774.802	8867.90986
774.992	9168.90359
775.182	9101.36631
775.372	9281.42462
775.562	9168.90359
775.752	9117.7407
775.942	9019.47776
776.131	8865.86098
776.321	8650.62724
776.511	8820.78101
776.701	8861.76316
776.891	9183.22729
777.081	8923.22292
777.271	8777.74197
777.461	8685.48833
777.651	8523.44105
777.84	8728.54465
778.03	8751.09473
778.22	8689.58928
778.41	8761.34403
778.599	8857.66527
778.789	8523.44105
778.979	8572.68298
779.169	8607.55612
779.358	8502.92036
779.548	8681.3873
779.738	8523.44105
779.927	8293.49973
780.117	8451.61031
780.307	8439.29412
780.496	8367.43586
780.686	8435.18857
780.875	8301.7161
781.065	8560.37352
781.254	8535.75256
781.444	8650.62724
781.633	8338.68592
781.823	8383.86269
782.012	8161.99484
782.202	8367.43586
782.391	8079.76288
782.581	8151.7176
782.77	8055.08702
782.96	8295.55385
783.149	7886.3902
783.338	8013.95411
783.528	8005.72655
783.717	8159.93943
783.906	8170.21627
784.096	8053.03057
784.285	8102.37987
784.474	8046.86109
784.663	8055.08702
784.853	7919.31747
785.042	7981.04192
785.231	8410.55365
785.42	7923.43301
785.61	8143.49544
785.799	7991.32754
785.988	8143.49544
786.177	7890.5064
786.366	7952.23947
786.555	8009.84037
786.744	8077.70667
786.933	7847.2822
787.122	7950.182
787.312	8022.18134
787.501	7985.15623
787.69	7985.15623
787.879	8155.82855
788.068	7851.39919
788.257	7937.83674
788.445	7956.35435
788.634	7919.31747
788.823	7801.9899
789.012	8061.25626
789.201	7839.04799
789.39	7577.43721
789.579	7717.55453
789.768	7631.02307
789.957	7616.59752
790.145	7663.99184
790.334	7626.90159
790.523	7614.53665
790.712	7581.55971
790.9	7935.77913
791.089	7734.0325
791.278	7836.98938
791.467	7721.67415
791.655	7709.31505
791.844	7682.53439
792.033	7655.75016
792.221	7334.05706
792.41	7614.53665
792.599	7367.07546
792.787	7459.90983
792.976	7402.1514
793.164	7530.02228
793.353	7536.20748
793.541	7525.89871
793.73	7482.596
793.918	7591.86559
794.107	7152.35522
794.295	7470.22205
794.484	7507.34157
794.672	7581.55971
794.861	7420.71846
795.049	7348.5033
795.238	7214.31824
795.426	7717.55453
795.614	7210.188
795.803	7461.97232
795.991	7338.18466
796.179	7381.51926
796.368	7197.79672
796.556	7185.40465
796.744	6875.34134
796.932	7241.1627
797.121	6893.95943
797.309	7007.69684
797.497	7061.43989
797.685	7317.54576
797.874	7278.32578
798.062	7393.8988
798.25	7026.30192
798.438	7195.73143
798.626	7065.57335
798.814	6896.02799
799.002	6970.4812
799.19	7220.51345
799.378	7034.57026
799.566	7137.89431
799.755	6958.07437
799.943	7152.35522
800.131	6920.84899
800.318	6916.71238
800.506	6910.5073
800.694	6964.27789
800.882	6904.30202
801.07	7111.03543
801.258	7030.43614
801.446	6949.80269
801.634	6918.78069
801.822	6984.95482
802.01	7020.10043
802.197	7230.83835
802.385	7053.17272
802.573	7222.57847
802.761	6912.57568
802.949	7082.10627
803.136	6958.07437
803.324	7218.4484
803.512	6844.30709
803.699	6821.5454
803.887	6519.17301
804.075	6842.23796
804.262	6639.35225
804.45	6862.92825
804.638	6815.33719
804.825	7067.64004
805.013	6862.92825
805.201	7003.56213
805.388	6844.30709
805.576	7113.10163
805.763	6848.44529
805.951	7102.7704
806.138	6802.92014
806.326	7131.69644
806.513	7024.23478
806.701	7251.48649
806.888	7049.039
807.075	7358.82139
807.263	7032.50321
807.45	7208.12284
807.638	6941.53066
807.825	7119.3001
808.012	6844.30709
808.2	7051.10587
808.387	6982.88722
808.574	7158.55242
808.761	7086.23927
808.949	7193.66612
809.136	6879.47885
809.323	7261.80974
809.51	7449.59707
809.698	7160.61811
809.885	6972.54893
810.072	7365.01198
810.259	7218.4484
810.446	7154.42098
810.633	7251.48649
810.82	7280.39019
811.008	7144.09198
811.195	6937.3945
811.382	7040.77128
811.569	7251.48649
811.756	6864.99716
811.943	7303.09721
812.13	6949.80269
812.317	7075.90659
812.504	7106.90296
812.691	7247.35704
812.878	7036.63729
813.064	7185.40465
813.251	6966.34568
813.438	7193.66612
813.625	6883.61627
813.812	6970.4812
813.999	6776.01373
814.186	7051.10587
814.372	6982.88722
814.559	6956.00648
814.746	6747.03328
814.933	6982.88722
815.12	6780.15343
815.306	7100.70409
815.493	6989.08993
815.68	7243.2275
815.866	6987.02238
816.053	7179.20832
816.24	7042.83824
816.426	7061.43989
816.613	6852.58339
816.799	6798.78095
816.986	6817.40661
817.173	6997.35989
817.359	6695.27131
817.546	7009.76416
817.732	6904.30202
817.919	7032.50321
818.105	6794.64166
818.292	7077.97317
818.478	6887.7536
818.665	6885.68495
818.851	6904.30202
819.037	6914.64404
819.224	6693.20053
819.41	6931.1901
819.597	6695.27131
819.783	6864.99716
819.969	6649.7089
820.156	6974.61663
820.342	6709.7661
820.528	6713.90727
820.714	6639.35225
820.901	6910.5073
821.087	6796.71131
821.273	6809.12877
821.459	6566.8396
821.646	6949.80269
821.832	6999.42733
822.018	7069.70671
822.204	6645.56631
822.39	6825.68409
822.576	6918.78069
822.762	6995.29244
822.948	6541.9716
823.134	6881.54757
823.32	6624.85198
823.507	6906.37047
823.693	6595.84805
823.879	6707.69549
824.065	6413.43376
824.25	6796.71131
824.436	6589.63234
824.622	6740.8226
824.808	6541.9716
824.994	6778.08359
825.18	6465.27428
825.366	6639.35225
825.552	6452.83388
825.738	6597.91991
825.923	6606.20712
826.109	6606.20712
826.295	6444.53982
826.481	6655.92261
826.667	6430.02431
826.852	6689.05891
827.038	6340.83259
827.224	6869.1349
827.409	6515.02751
827.595	6369.87649
827.781	6463.20094
827.966	6531.60895
828.152	6295.18293
828.338	6394.76762
828.523	6133.24282
828.709	6218.38297
828.894	6083.38636
829.08	6276.50481
829.266	5952.44865
829.451	6486.00642
829.637	6189.31516
829.822	6436.24538
830.008	6230.8392
830.193	6411.35984
830.378	6068.84234
830.564	6234.99108
830.749	6234.99108
830.935	6376.09958
831.12	6050.14119
831.305	6214.23071
831.491	5973.23866
831.676	6127.0115
831.861	5915.0207
832.047	6072.99789
832.232	5939.97351
832.417	6021.04673
832.602	5937.89424
832.788	5946.21119
832.973	5677.79946
833.158	5946.21119
833.343	5908.78196
833.528	6060.53095
833.714	5842.22224
833.899	5971.15976
834.084	5819.33676
834.269	6035.59454
834.454	5806.85256
834.639	6016.89
834.824	5777.71947
835.009	6029.3599
835.194	5700.7026
835.379	5881.74499
835.564	5567.40797
835.749	6008.57626
835.934	5700.7026
836.119	5881.74499
836.304	5563.24095
836.489	5892.1443
836.674	5692.37451
836.859	5863.02475
837.044	5692.37451
837.228	5887.98464
837.413	5833.90058
837.598	5998.18355
837.783	5619.48768
837.968	5852.62379
838.152	5511.14533
838.337	5842.22224
838.522	5698.62061
838.707	6070.92013
838.891	5636.15008
839.076	5890.06448
839.261	5721.52116
839.445	5546.57196
839.63	5509.0612
839.815	5352.68435
839.999	5477.79641
840.184	5575.74171
840.368	5556.99026
840.553	5402.73933
840.737	5554.90664
840.922	5544.48823
841.106	5340.1685
841.291	5461.11969
841.475	5396.48319
841.66	5523.64963
841.844	5492.38731
842.029	5588.24162
842.213	5329.73798
842.397	5411.08051
842.582	5125.18174
842.766	5265.05566
842.951	5047.89319
843.135	5308.87517
843.319	5093.85237
843.504	5198.26326
843.688	5233.7497
843.872	5373.54223
844.056	5208.70115
844.241	5325.5656
844.425	5210.78866
844.609	5062.51779
844.793	5060.42863
844.977	5229.57518
845.161	4878.5836
845.346	5041.62517
845.53	4891.13022
845.714	5285.92338
845.898	5066.69603
846.082	4905.7669
846.266	4941.30845
846.45	4997.74314
846.634	4859.76212
846.818	5024.9094
847.002	4960.12188
847.186	5260.88184
847.37	4809.56249
847.554	5045.80387
847.738	4732.14572
847.922	5033.26747
848.106	4698.65861
848.29	4884.85701
848.473	4811.6544
848.657	4759.34974
848.841	4730.05295
849.025	4916.22099
849.209	4522.75704
849.392	5116.82775
849.576	4820.02183
849.76	4778.18105
849.944	4773.99648
850.127	4960.12188
850.311	4889.03917
850.495	4853.48789
850.678	4593.97427
850.862	4782.36554
851.046	4497.61543
851.229	4788.6421
851.413	4631.66709
851.596	4838.8472
851.78	4562.55807
851.964	4694.47231
852.147	4407.49864
852.331	4723.77448
852.514	4585.59711
852.698	4681.91288
852.881	4736.3312
853.065	4541.61116
853.248	4415.88331
853.431	4681.91288
853.615	4403.30618
853.798	4537.42151
853.982	4388.63187
854.165	4441.03521
854.348	4204.0645
854.532	4476.66167
854.715	4518.567
854.898	4348.79622
855.081	4287.97939
855.265	4388.63187
855.448	3987.82864
855.631	4099.12324
855.814	4128.51209
855.997	4155.79805
856.181	3985.72819
856.364	4231.34058
856.547	3903.79466
856.73	4086.52677
856.913	3985.72819
857.096	4277.4919
857.279	4227.1445
857.462	4292.17423
857.645	3926.90723
857.828	4008.83205
858.011	4088.62624
858.194	4168.39038
858.377	3935.3112
858.56	4159.99558
858.743	4055.03232
858.926	4189.3759
859.109	3826.03459
859.292	4206.16279
859.475	3910.09833
859.658	4073.92955
859.841	3735.63082
860.023	3916.40182
860.206	3842.84989
860.389	4046.63302
860.572	3634.67272
860.755	3931.10926
860.937	3889.08539
861.12	3897.49081
861.303	3788.19556
861.486	3912.19951
861.668	3699.87987
861.851	3767.17112
862.034	3643.08757
862.216	3683.05397
862.399	3550.50769
862.581	3676.74395
862.764	3582.07308
862.947	3813.42229
863.129	3413.67681
863.312	3607.32237
863.494	3523.14766
863.677	3603.11434
863.859	3466.31311
864.042	3678.84731
864.224	3413.67681
864.406	3539.98497
864.589	3419.99376
864.771	3781.88843
864.954	3262.02298
865.136	3592.59394
865.318	3525.25239
865.501	3333.64847
865.683	3232.52444
865.865	3483.15436
866.048	3249.38115
866.23	3514.72856
866.412	3287.30482
866.594	3497.8895
866.777	3295.73155
866.959	3426.31054
867.141	3200.91524
867.323	3245.16708
867.505	2971.11312
867.687	3358.9233
867.869	3144.00935
868.052	3363.13553
868.234	3249.38115
868.416	3449.47071
868.598	3297.83819
868.78	3401.04244
868.962	3247.27412
869.144	3476.83903
869.326	3093.41646
869.508	3375.7718
869.69	3137.68574
869.872	3333.64847
870.054	3339.96741
870.236	3373.6658
870.417	3093.41646
870.599	3179.84037
870.781	3146.11719
870.963	3186.163
871.145	2966.89485
871.327	3304.15801
871.508	2969.00399
871.69	3087.09171
871.872	2895.17519
872.054	3152.4406
872.235	2909.94239
872.417	3146.11719
872.599	2857.19917
872.78	3139.79363
872.962	3030.16257
873.144	3306.26459
873.325	3122.9301
873.507	3213.55937
873.689	2947.91189
873.87	3331.54212
874.052	2852.97933
874.233	3127.14608
874.415	3110.28178
874.596	3144.00935
874.778	2937.36528
874.959	3177.73279
875.141	2791.78533
875.322	2939.47464
875.503	2779.12305
875.685	2983.76757
875.866	2829.76919
876.048	3000.63933
876.229	2825.54898
876.41	3089.19997
876.592	2977.44041
876.773	3072.33339
876.954	2987.9856
877.136	3082.87512
877.317	2975.33133
877.498	3272.55738
877.679	2905.72326
877.86	3247.27412
878.042	3068.11659
878.223	3158.76387
878.404	3009.07485
878.585	3036.48859
878.766	2806.55736
878.947	2992.20357
879.128	2852.97933
879.309	3017.51012
879.49	2969.00399
879.672	3141.9015
879.853	2912.05193
880.034	3177.73279
880.215	3068.11659
880.396	3234.63159
880.576	2945.8026
880.757	2926.81831
880.938	3053.35729
881.119	3171.40997
881.3	2958.45813
881.481	3080.76681
881.662	3004.85712
881.843	2992.20357
882.023	2819.21857
882.204	2990.0946
882.385	2831.87927
882.566	3135.57784
882.747	3017.51012
882.927	3087.09171
883.108	2935.25592
883.289	3162.9793
883.469	3139.79363
883.65	3127.14608
883.831	3114.49795
884.011	3184.05548
884.192	3051.24876
884.373	3171.40997
884.553	3112.38987
884.734	3156.65613
884.914	3042.81447
885.095	3171.40997
885.275	2924.70887
885.456	3152.4406
885.636	3061.79127
885.817	3339.96741
885.997	2831.87927
886.178	3192.48549
886.358	3118.71405
886.538	3318.90366
886.719	3009.07485
886.899	2998.53042
887.08	3146.11719
887.26	3169.30232
887.44	3076.55013
887.621	3059.6828
887.801	2943.69329
887.981	3325.22297
888.161	3044.92307
888.342	3110.28178
888.522	2950.02117
888.702	2981.65854
888.882	2950.02117
889.062	3070.225
889.242	2865.63869
889.423	2958.45813
889.603	2924.70887
889.783	3110.28178
889.963	2941.58397
890.143	3011.18369
890.323	2825.54898
890.503	3186.163
890.683	3063.89973
890.863	3181.94793
891.043	2960.56733
891.223	3093.41646
891.403	2884.62676
891.583	3188.27051
891.763	3017.51012
891.943	3028.05387
892.122	3055.46581
892.302	3350.49864
892.482	3066.00817
892.662	3006.96599
892.842	3066.00817
893.022	2983.76757
893.201	2935.25592
893.381	3135.57784
893.561	2975.33133
893.741	3101.84925
893.92	2869.85836
894.1	3093.41646
894.28	2614.47032
894.459	2848.75943
894.639	2637.69528
894.819	2878.29753
894.998	2838.20944
895.178	2852.97933
895.357	2696.80651
895.537	3238.84584
895.716	2844.53948
895.896	2958.45813
896.075	2924.70887
896.255	2918.38047
896.434	2850.86939
896.614	3038.59723
896.793	2665.14102
896.973	2977.44041
897.152	2743.24396
897.331	2789.67498
897.511	2734.80127
897.69	2810.77782
897.87	2620.80455
898.049	2637.69528
898.228	2690.47365
898.407	2629.25002
898.587	2572.23934
898.766	2766.46029
898.945	2394.81888
899.124	2772.79173
899.304	2460.30458
899.483	2743.24396
899.662	2603.91303
899.841	2549.01026
900.02	2606.02451
900.199	2804.44711
900.378	2312.41958
900.557	2489.87535
900.737	2236.34572
900.916	2392.70627
901.095	2276.49731
901.274	2344.11341
901.453	2134.89618
901.632	2327.21031
901.811	2268.04461
901.989	2274.38415
902.168	2272.27098
902.347	2470.86582
902.526	2198.30441
902.705	2506.77195
902.884	2160.26036
903.063	2287.06296
903.242	2094.73394
903.42	2333.54905
903.599	2012.28737
903.778	2101.07553
903.957	1811.41673
904.135	1995.37398
904.314	1851.59467
904.493	2130.66871
904.672	1957.31734
904.85	1940.40265
905.029	1764.89292
905.207	1895.99984
905.386	1733.17107
905.565	2067.25295
905.743	1838.90708
905.922	1970.00311
906.1	1855.82383
906.279	1904.45771
906.457	1783.92563
906.636	1798.72862
906.814	1676.06981
906.993	1618.9665
907.171	1528.02125
907.35	1817.76072
907.528	1525.90622
907.707	1602.04669
907.885	1547.05652
908.063	1515.33103
908.242	1513.21599
908.42	1540.71144
908.598	1498.41068
908.777	1616.85154
908.955	1388.42813
909.133	1523.79118
909.311	1411.69361
909.49	1682.4145
909.668	1420.1538
909.846	1631.65628
910.024	1437.07421
910.202	1644.34597
910.38	1551.28657
910.559	1631.65628
910.737	1481.4903
910.915	1587.24175
911.093	1386.31309
911.271	1599.9317
911.449	1449.76452
911.627	1481.4903
911.805	1485.72039
911.983	1597.81672
912.161	1415.92371
912.339	1604.16167
912.517	1396.8883
912.695	1551.28657
912.872	1394.77325
913.05	1479.37525
913.228	1356.70265
913.406	1589.35675
913.584	1481.4903
913.762	1475.14515
913.939	1479.37525
914.117	1566.0917
914.295	1371.50784
914.473	1580.89675
914.65	1246.72379
914.828	1498.41068
915.006	1384.19805
915.184	1629.54132
915.361	1284.79275
915.539	1437.07421
915.716	1265.75817
915.894	1392.65821
916.072	1322.86244
916.249	1401.11838
916.427	1276.33291
916.604	1585.12675
916.782	1225.57474
916.959	1439.18926
917.137	1310.17248
917.314	1479.37525
917.492	1293.25263
917.669	1382.08301
917.847	1267.87311
918.024	1411.69361
918.201	1284.79275
918.379	1320.74745
918.556	1124.06413
918.733	1316.51745
918.911	1157.90001
919.088	1255.18349
919.265	1094.45868
919.442	1255.18349
919.62	1109.26129
919.797	1090.22941
919.974	1041.59428
920.151	1208.65573
920.328	1086.00015
920.506	1318.63245
920.683	1024.67841
920.86	1289.02269
921.037	1179.04797
921.214	1244.60887
921.391	1183.2776
921.568	1168.47394
921.745	997.19094
921.922	1081.77092
922.099	1007.76292
922.276	1253.06856
922.453	1047.93783
922.63	959.13317
922.807	1176.93315
922.984	1126.17884
923.161	976.04747
923.338	1052.16689
923.514	1043.70879
923.691	1140.98193
923.868	895.70869
924.045	971.81885
924.222	866.113
924.399	1020.4495
924.575	904.16489
924.752	1016.22061
924.929	904.16489
925.105	857.65739
925.282	918.96355
925.459	927.42009
925.635	961.24743
925.812	1016.22061
925.989	811.15404
926.165	937.99093
926.342	718.16124
926.518	946.44774
926.695	781.56332
926.871	1052.16689
927.048	770.99567
927.224	931.6484
927.401	642.09171
927.577	768.88217
927.754	754.08795
927.93	785.79045
928.107	642.09171
928.283	798.47207
928.459	891.48064
928.636	927.42009
928.812	694.9162
928.988	844.97423
929.165	743.52096
929.341	790.01762
929.517	661.10768
929.693	751.97453
929.87	663.22063
930.046	694.9162
930.222	591.3873
930.398	684.35073
930.574	559.70082
930.751	661.10768
930.927	616.7386
931.103	684.35073
931.279	561.81316
931.455	532.24166
931.631	506.89684
931.807	570.26265
931.983	502.6729
932.159	557.58849
932.335	418.2068
932.511	498.44903
932.687	496.33711
932.863	473.107
933.039	460.4368
933.215	523.79316
933.391	369.65026
933.566	468.88354
933.742	449.87871
933.918	407.65029
934.094	354.87394
934.27	399.20538
934.445	407.65029
934.621	392.87187
934.797	297.88759
934.973	352.76311
935.148	409.76156
935.324	371.76124
935.5	293.6669
935.675	432.98659
935.851	333.76638
936.027	327.43445
936.202	249.35413
936.378	173.40929
936.553	257.79401
936.729	299.99796
936.904	297.88759
937.08	230.36551
937.255	217.70731
937.431	234.58507
937.606	209.26891
937.782	188.1743
937.957	116.46812
938.133	124.90287
938.308	150.20917
938.483	190.28367
938.659	177.62776
938.834	160.75436
939.009	148.10019
939.185	186.06495
939.36	156.53622
939.535	143.8823
939.71	61.65088
939.886	103.81665
940.061	116.46812
940.236	143.8823
940.411	120.68545
940.586	84.84094
940.761	80.62436
940.937	110.14229
941.112	63.75895
941.287	17.38667
941.462	156.53622
941.637	95.38278
941.812	80.62436
941.987	139.6645
942.162	78.51611
942.337	105.92518
942.512	89.05761
942.687	93.27437
942.862	89.05761
943.037	61.65088
943.212	25.81715
943.386	57.4348
943.561	112.25088
943.736	72.19148
943.911	101.70815
944.086	59.54283
944.26	34.24801
944.435	40.5714
944.61	173.40929
944.785	118.57677
944.959	95.38278
945.134	162.86346
945.309	38.46358
945.483	34.24801
945.658	36.35578
945.833	114.35949
946.007	6.8491
946.182	110.14229
946.357	97.49122
946.531	59.54283
946.706	103.81665
946.88	51.11085
947.055	55.32679
947.229	101.70815
947.404	32.14026
947.578	25.81715
947.752	36.35578
947.927	76.40788
948.101	57.4348
948.276	44.78711
948.45	59.54283
948.624	118.57677
948.799	46.895
948.973	30.03253
949.147	86.94927
949.321	70.08331
949.496	169.1909
949.67	97.49122
949.844	27.92483
950.018	93.27437
950.193	80.62436
950.367	118.57677
950.541	25.81715
950.715	105.92518
950.889	93.27437
951.063	97.49122
951.237	46.895
951.411	61.65088
951.585	11.06405
951.759	30.03253
951.933	137.55563
952.107	46.895
952.281	67.97517
952.455	148.10019
952.629	32.14026
952.803	32.14026
952.977	78.51611
953.151	70.08331
953.325	80.62436
953.499	-5.79519
953.672	93.27437
953.846	95.38278
954.02	30.03253
954.194	112.25088
954.368	86.94927
954.541	89.05761
954.715	169.1909
954.889	110.14229
955.062	78.51611
955.236	120.68545
955.41	127.01161
955.583	76.40788
955.757	44.78711
955.93	46.895
956.104	89.05761
956.278	93.27437
956.451	84.84094
956.625	112.25088
956.798	118.57677
956.972	91.16598
957.145	118.57677
957.319	137.55563
957.492	93.27437
957.665	57.4348
957.839	171.30008
958.012	91.16598
958.185	67.97517
958.359	65.86705
958.532	63.75895
958.705	105.92518
958.879	135.44678
959.052	84.84094
959.225	101.70815
959.398	72.19148
959.572	120.68545
959.745	127.01161
959.918	61.65088
960.091	120.68545
960.264	120.68545
960.438	110.14229
960.611	131.22915
960.784	76.40788
960.957	101.70815
961.13	143.8823
961.303	122.79415
961.476	67.97517
961.649	101.70815
961.822	0.52684
961.995	82.73264
962.168	167.08173
962.341	76.40788
962.514	36.35578
962.686	63.75895
962.859	74.29967
963.032	76.40788
963.205	63.75895
963.378	164.97259
963.551	51.11085
963.723	72.19148
963.896	82.73264
964.069	84.84094
964.242	91.16598
964.414	72.19148
964.587	86.94927
964.76	13.17157
964.932	61.65088
965.105	8.95656
965.278	93.27437
965.45	38.46358
965.623	74.29967
965.795	76.40788
965.968	40.5714
966.14	95.38278
966.313	57.4348
966.485	93.27437
966.658	108.03372
966.83	46.895
967.003	112.25088
967.175	101.70815
967.348	63.75895
967.52	101.70815
967.692	70.08331
967.865	38.46358
968.037	110.14229
968.209	118.57677
968.382	101.70815
968.554	70.08331
968.726	72.19148
968.898	84.84094
969.071	63.75895
969.243	27.92483
969.415	67.97517
969.587	84.84094
969.759	76.40788
969.932	133.33796
970.104	65.86705
970.276	101.70815
970.448	67.97517
970.62	36.35578
970.792	51.11085
970.964	46.895
971.136	127.01161
971.308	57.4348
971.48	63.75895
971.652	-22.65289
971.824	51.11085
971.996	70.08331
972.168	55.32679
972.339	-1.58052
972.511	65.86705
972.683	84.84094
972.855	30.03253
973.027	93.27437
973.199	27.92483
973.37	36.35578
973.542	-3.68787
973.714	118.57677
973.886	38.46358
974.057	23.70949
974.229	46.895
974.401	8.95656
974.572	8.95656
974.744	89.05761
974.915	59.54283
975.087	148.10019
975.259	82.73264
975.43	42.67924
975.602	63.75895
975.773	40.5714
975.945	44.78711
976.116	61.65088
976.288	55.32679
976.459	72.19148
976.63	42.67924
976.802	61.65088
976.973	8.95656
977.145	59.54283
977.316	4.74166
977.487	72.19148
977.659	13.17157
977.83	44.78711
978.001	59.54283
978.172	49.00291
978.344	13.17157
978.515	27.92483
978.686	108.03372
978.857	38.46358
979.028	143.8823
979.2	118.57677
979.371	-28.97412
979.542	67.97517
979.713	59.54283
979.884	2.63424
980.055	72.19148
980.226	76.40788
980.397	76.40788
980.568	-20.54576
980.739	120.68545
980.91	46.895
981.081	59.54283
981.252	25.81715
981.423	53.21881
981.594	25.81715
981.765	86.94927
981.936	38.46358
982.106	93.27437
982.277	51.11085
982.448	114.35949
982.619	76.40788
982.79	-66.89679
982.96	74.29967
983.131	84.84094
983.302	55.32679
983.472	27.92483
983.643	120.68545
983.814	82.73264
983.984	38.46358
984.155	8.95656
984.326	42.67924
984.496	55.32679
984.667	27.92483
984.837	11.06405
985.008	74.29967
985.178	63.75895
985.349	70.08331
985.519	0.52684
985.69	55.32679
985.86	4.74166
986.031	-24.75999
986.201	65.86705
986.371	74.29967
986.542	-7.90249
986.712	67.97517
986.882	4.74166
987.053	42.67924
987.223	86.94927
987.393	13.17157
987.563	38.46358
987.734	11.06405
987.904	-43.72279
988.074	19.49425
988.244	25.81715
988.414	21.60186
988.585	59.54283
988.755	61.65088
988.925	42.67924
989.095	8.95656
989.265	105.92518
989.435	30.03253
989.605	101.70815
989.775	0.52684
989.945	34.24801
990.115	72.19148
990.285	-37.40208
990.455	46.895
990.625	65.86705
990.795	27.92483
990.965	67.97517
991.134	30.03253
991.304	15.2791
991.474	84.84094
991.644	-20.54576
991.814	44.78711
991.984	51.11085
992.153	95.38278
992.323	8.95656
992.493	59.54283
992.662	13.17157
992.832	25.81715
993.002	67.97517
993.171	25.81715
993.341	67.97517
993.511	-14.22423
993.68	-18.43861
993.85	152.31817
994.019	105.92518
994.189	-5.79519
994.358	0.52684
994.528	-28.97412
994.697	38.46358
994.867	13.17157
995.036	6.8491
995.206	-45.82964
995.375	-58.47023
995.544	46.895
995.714	0.52684
995.883	-20.54576
996.052	-12.11701
996.222	42.67924
996.391	61.65088
996.56	-5.79519
996.73	105.92518
996.899	34.24801
997.068	57.4348
997.237	11.06405
997.406	4.74166
997.576	21.60186
997.745	-3.68787
997.914	-7.90249
998.083	23.70949
998.252	55.32679
998.421	21.60186
998.59	57.4348
998.759	38.46358
998.928	-45.82964
999.097	25.81715
999.266	-37.40208
999.435	25.81715
999.604	46.895
999.773	55.32679
999.942	51.11085
1000.111	34.24801
1000.28	-31.08114
1000.448	15.2791
1000.617	8.95656
1000.786	-5.79519
1000.955	70.08331
1001.124	55.32679
1001.292	-12.11701
1001.461	40.5714
1001.63	-14.22423
1001.798	-39.50901
1001.967	91.16598
1002.136	-18.43861
1002.304	89.05761
1002.473	-28.97412
1002.642	19.49425
1002.81	93.27437
1002.979	27.92483
1003.147	17.38667
1003.316	46.895
1003.484	46.895
1003.653	-16.33143
1003.821	51.11085
1003.99	30.03253
1004.158	51.11085
1004.327	76.40788
1004.495	-16.33143
1004.663	34.24801
1004.832	15.2791
1005	95.38278
1005.168	67.97517
1005.337	30.03253
1005.505	36.35578
1005.673	17.38667
1005.842	-5.79519
1006.01	84.84094
1006.178	23.70949
1006.346	25.81715
1006.514	17.38667
1006.683	-5.79519
1006.851	0.52684
1007.019	-7.90249
1007.187	25.81715
1007.355	0.52684
1007.523	30.03253
1007.691	72.19148
1007.859	135.44678
1008.027	-54.2568
1008.195	13.17157
1008.363	-3.68787
1008.531	-20.54576
1008.699	21.60186
1008.867	11.06405
1009.035	76.40788
1009.203	36.35578
1009.37	25.81715
1009.538	4.74166
1009.706	6.8491
1009.874	-7.90249
1010.042	97.49122
1010.209	17.38667
1010.377	65.86705
1010.545	23.70949
1010.713	34.24801
1010.88	-28.97412
1011.048	63.75895
1011.216	105.92518
1011.383	61.65088
1011.551	13.17157
1011.718	-14.22423
1011.886	44.78711
1012.054	19.49425
1012.221	38.46358
1012.389	-24.75999
1012.556	-7.90249
1012.724	25.81715
1012.891	11.06405
1013.058	21.60186
1013.226	-31.08114
1013.393	21.60186
1013.561	-26.86706
1013.728	13.17157
1013.895	42.67924
1014.063	-83.74867
1014.23	25.81715
1014.397	36.35578
1014.565	-20.54576
1014.732	-22.65289
1014.899	-102.70506
1015.066	70.08331
1015.233	42.67924
1015.401	42.67924
1015.568	-3.68787
1015.735	49.00291
1015.902	-69.00336
1016.069	-22.65289
1016.236	-62.68356
1016.403	51.11085
1016.57	67.97517
1016.737	32.14026
1016.904	4.74166
1017.071	2.63424
1017.238	72.19148
1017.405	82.73264
1017.572	30.03253
1017.739	-7.90249
1017.906	0.52684
1018.073	42.67924
1018.24	17.38667
1018.407	-58.47023
1018.573	46.895
1018.74	-33.18815
1018.907	-31.08114
1019.074	34.24801
1019.241	-14.22423
1019.407	46.895
1019.574	0.52684
1019.741	38.46358
1019.907	-16.33143
1020.074	0.52684
1020.241	34.24801
1020.407	-12.11701
1020.574	61.65088
1020.74	13.17157
1020.907	21.60186
1021.073	4.74166
1021.24	27.92483
1021.406	51.11085
1021.573	61.65088
1021.739	8.95656
1021.906	4.74166
1022.072	40.5714
1022.239	44.78711
1022.405	27.92483
1022.571	-16.33143
1022.738	76.40788
1022.904	-14.22423
1023.07	-28.97412
1023.237	42.67924
1023.403	42.67924
1023.569	27.92483
1023.735	70.08331
1023.902	-31.08114
1024.068	0.52684
1024.234	61.65088
1024.4	-12.11701
1024.566	-12.11701
1024.732	-3.68787
1024.898	-20.54576
1025.065	46.895
1025.231	23.70949
1025.397	76.40788
1025.563	17.38667
1025.729	-16.33143
1025.895	-41.61591
1026.061	34.24801
1026.227	40.5714
1026.392	51.11085
1026.558	0.52684
1026.724	72.19148
1026.89	-5.79519
1027.056	0.52684
1027.222	44.78711
1027.388	-16.33143
1027.553	11.06405
1027.719	53.21881
1027.885	8.95656
1028.051	25.81715
1028.216	27.92483
1028.382	17.38667
1028.548	25.81715
1028.713	30.03253
1028.879	4.74166
1029.045	34.24801
1029.21	51.11085
1029.376	2.63424
1029.541	-33.18815
1029.707	-37.40208
1029.873	-26.86706
1030.038	46.895
1030.204	4.74166
1030.369	21.60186
1030.534	46.895
1030.7	2.63424
1030.865	27.92483
1031.031	4.74166
1031.196	2.63424
1031.361	13.17157
1031.527	27.92483
1031.692	-7.90249
1031.857	19.49425
1032.023	42.67924
1032.188	70.08331
1032.353	61.65088
1032.518	-26.86706
1032.684	-39.50901
1032.849	19.49425
1033.014	-5.79519
1033.179	21.60186
1033.344	11.06405
1033.509	6.8491
1033.674	46.895
1033.839	11.06405
1034.004	-10.00976
1034.17	-41.61591
1034.335	8.95656
1034.5	-5.79519
1034.664	8.95656
1034.829	-31.08114
1034.994	4.74166
1035.159	-5.79519
1035.324	63.75895
1035.489	25.81715
1035.654	4.74166
1035.819	25.81715
1035.984	42.67924
1036.148	34.24801
1036.313	30.03253
1036.478	76.40788
1036.643	53.21881
1036.807	-7.90249
1036.972	-3.68787
1037.137	-24.75999
1037.301	55.32679
1037.466	4.74166
1037.631	36.35578
1037.795	-52.15005
1037.96	4.74166
1038.124	19.49425
1038.289	0.52684
1038.454	0.52684
1038.618	8.95656
1038.783	-58.47023
1038.947	-66.89679
1039.111	-7.90249
1039.276	63.75895
1039.44	80.62436
1039.605	36.35578
1039.769	-3.68787
1039.933	13.17157
1040.098	-14.22423
1040.262	51.11085
1040.426	67.97517
1040.591	-12.11701
1040.755	0.52684
1040.919	-71.10991
1041.083	30.03253
1041.248	0.52684
1041.412	34.24801
1041.576	17.38667
1041.74	21.60186
1041.904	-3.68787
1042.068	19.49425
1042.232	44.78711
1042.397	-31.08114
1042.561	-12.11701
1042.725	8.95656
1042.889	21.60186
1043.053	57.4348
1043.217	-22.65289
1043.381	-58.47023
1043.544	-28.97412
1043.708	13.17157
1043.872	-16.33143
1044.036	4.74166
1044.2	25.81715
1044.364	25.81715
1044.528	91.16598
1044.691	30.03253
1044.855	51.11085
1045.019	38.46358
1045.183	-54.2568
1045.346	-75.32294
1045.51	17.38667
1045.674	-39.50901
1045.837	8.95656
1046.001	17.38667
1046.165	44.78711
1046.328	-5.79519
1046.492	53.21881
1046.655	11.06405
1046.819	4.74166
1046.983	11.06405
1047.146	8.95656
1047.31	67.97517
1047.473	-22.65289
1047.636	-31.08114
1047.8	-14.22423
1047.963	8.95656
1048.127	25.81715
1048.29	-16.33143
