Data from Scatter_Coeff_Baseline_USB4F045381__4__0004.txt Node

Date: Thu Feb 13 19:13:48 EST 2025
User: mmckonesweet
Spectrometer: USB4F04538
Trigger mode: 4
Integration Time (sec): 2.400000E-3
Scans to average: 1
Electric dark correction enabled: true
Nonlinearity correction enabled: true
Boxcar width: 0
XAxis mode: Wavelengths
Number of Pixels in Spectrum: 3648
>>>>>Begin Spectral Data<<<<<
345.52	62.70491
345.736	62.70491
345.952	62.70491
346.168	-30.02763
346.384	-51.09666
346.6	5.79537
346.816	81.6785
347.032	-2.6342
347.248	26.87099
347.464	16.33288
347.68	37.40968
347.896	-27.92059
348.112	60.59685
348.328	-40.56246
348.544	-15.27784
348.76	-84.80186
348.975	-57.41689
349.191	20.54805
349.407	18.44046
349.623	-25.81353
349.839	24.76332
350.055	26.87099
350.27	66.92111
350.486	45.84105
350.702	5.79537
350.918	79.57023
351.133	-51.09666
351.349	-40.56246
351.565	60.59685
351.781	10.01031
351.996	33.19413
352.212	-4.74153
352.428	-4.74153
352.644	-2.6342
352.859	7.90283
353.075	66.92111
353.291	26.87099
353.506	-36.3486
353.722	94.32857
353.938	10.01031
354.153	-21.59933
354.369	-48.98987
354.584	-30.02763
354.8	16.33288
355.016	66.92111
355.231	-4.74153
355.447	31.08639
355.662	-13.17063
355.878	-38.45555
356.093	43.73317
356.309	58.48881
356.524	33.19413
356.74	28.97868
356.955	-38.45555
357.171	-6.84884
357.386	-40.56246
357.602	88.00344
357.817	37.40968
358.033	16.33288
358.248	-30.02763
358.464	39.51749
358.679	28.97868
358.895	-19.49219
359.11	1.58054
359.325	-6.84884
359.541	-21.59933
359.756	50.05688
359.972	14.22533
360.187	62.70491
360.402	16.33288
360.618	-32.13465
360.833	28.97868
361.048	20.54805
361.264	-51.09666
361.479	31.08639
361.694	14.22533
361.909	54.2728
362.125	41.62532
362.34	-8.95613
362.555	83.78679
362.77	66.92111
362.986	-21.59933
363.201	41.62532
363.416	28.97868
363.631	22.65567
363.847	24.76332
364.062	45.84105
364.277	24.76332
364.492	60.59685
364.707	-63.73688
364.922	16.33288
365.138	92.22017
365.353	75.35377
365.568	-30.02763
365.783	-101.65198
365.998	66.92111
366.213	26.87099
366.428	37.40968
366.643	71.13739
366.858	52.16483
367.073	31.08639
367.288	-8.95613
367.503	58.48881
367.718	5.79537
367.933	-6.84884
368.148	37.40968
368.363	14.22533
368.578	5.79537
368.793	37.40968
369.008	-8.95613
369.223	3.68794
369.438	41.62532
369.653	-15.27784
369.868	24.76332
370.083	16.33288
370.298	22.65567
370.513	7.90283
370.728	62.70491
370.943	24.76332
371.157	60.59685
371.372	-40.56246
371.587	-17.38502
371.802	37.40968
372.017	24.76332
372.232	-8.95613
372.446	24.76332
372.661	62.70491
372.876	-21.59933
373.091	-55.31017
373.306	33.19413
373.52	12.11781
373.735	22.65567
373.95	83.78679
374.165	-34.24164
374.379	7.90283
374.594	66.92111
374.809	-11.06339
375.023	85.8951
375.238	-0.52684
375.453	28.97868
375.667	16.33288
375.882	69.02924
376.097	-42.66935
376.311	41.62532
376.526	-17.38502
376.741	16.33288
376.955	-13.17063
377.17	18.44046
377.384	20.54805
377.599	7.90283
377.813	50.05688
378.028	94.32857
378.242	-25.81353
378.457	3.68794
378.672	28.97868
378.886	1.58054
379.101	75.35377
379.315	50.05688
379.53	50.05688
379.744	71.13739
379.958	28.97868
380.173	28.97868
380.387	-8.95613
380.602	50.05688
380.816	54.2728
381.031	7.90283
381.245	-44.77622
381.459	50.05688
381.674	83.78679
381.888	37.40968
382.103	-17.38502
382.317	-17.38502
382.531	45.84105
382.746	-40.56246
382.96	77.46199
383.174	58.48881
383.388	73.24557
383.603	-4.74153
383.817	7.90283
384.031	60.59685
384.246	24.76332
384.46	-23.70644
384.674	41.62532
384.888	62.70491
385.103	66.92111
385.317	18.44046
385.531	31.08639
385.745	3.68794
385.959	-84.80186
386.174	71.13739
386.388	37.40968
386.602	24.76332
386.816	-34.24164
387.03	33.19413
387.244	22.65567
387.458	37.40968
387.672	-32.13465
387.887	-15.27784
388.101	-4.74153
388.315	-21.59933
388.529	3.68794
388.743	88.00344
388.957	24.76332
389.171	85.8951
389.385	54.2728
389.599	37.40968
389.813	26.87099
390.027	71.13739
390.241	50.05688
390.455	85.8951
390.669	3.68794
390.883	94.32857
391.097	69.02924
391.311	94.32857
391.525	26.87099
391.738	62.70491
391.952	66.92111
392.166	-4.74153
392.38	47.94895
392.594	58.48881
392.808	71.13739
393.022	94.32857
393.236	20.54805
393.449	62.70491
393.663	16.33288
393.877	-23.70644
394.091	5.79537
394.305	26.87099
394.518	-4.74153
394.732	33.19413
394.946	69.02924
395.16	-15.27784
395.373	3.68794
395.587	79.57023
395.801	47.94895
396.015	75.35377
396.228	66.92111
396.442	-78.48264
396.656	14.22533
396.869	16.33288
397.083	45.84105
397.297	60.59685
397.51	-8.95613
397.724	96.437
397.938	16.33288
398.151	50.05688
398.365	39.51749
398.578	31.08639
398.792	22.65567
399.005	14.22533
399.219	-38.45555
399.433	45.84105
399.646	37.40968
399.86	41.62532
400.073	94.32857
400.287	71.13739
400.5	33.19413
400.714	104.87091
400.927	47.94895
401.141	102.7624
401.354	52.16483
401.567	12.11781
401.781	-13.17063
401.994	37.40968
402.208	41.62532
402.421	41.62532
402.635	85.8951
402.848	-8.95613
403.061	54.2728
403.275	-6.84884
403.488	-8.95613
403.701	75.35377
403.915	52.16483
404.128	52.16483
404.341	41.62532
404.555	41.62532
404.768	16.33288
404.981	79.57023
405.195	24.76332
405.408	18.44046
405.621	66.92111
405.834	33.19413
406.048	58.48881
406.261	16.33288
406.474	90.11179
406.687	88.00344
406.9	28.97868
407.114	24.76332
407.327	79.57023
407.54	50.05688
407.753	94.32857
407.966	12.11781
408.179	26.87099
408.392	75.35377
408.605	35.30189
408.819	94.32857
409.032	-23.70644
409.245	88.00344
409.458	33.19413
409.671	71.13739
409.884	66.92111
410.097	-6.84884
410.31	159.69982
410.523	12.11781
410.736	16.33288
410.949	43.73317
411.162	35.30189
411.375	60.59685
411.588	22.65567
411.801	69.02924
412.014	71.13739
412.227	43.73317
412.44	28.97868
412.653	-4.74153
412.865	88.00344
413.078	109.088
413.291	64.813
413.504	26.87099
413.717	64.813
413.93	77.46199
414.143	33.19413
414.356	3.68794
414.568	37.40968
414.781	-38.45555
414.994	18.44046
415.207	28.97868
415.42	43.73317
415.632	-6.84884
415.845	-6.84884
416.058	69.02924
416.271	35.30189
416.483	5.79537
416.696	85.8951
416.909	39.51749
417.121	109.088
417.334	7.90283
417.547	96.437
417.759	54.2728
417.972	41.62532
418.185	26.87099
418.397	47.94895
418.61	56.38079
418.823	102.7624
419.035	96.437
419.248	37.40968
419.46	33.19413
419.673	-17.38502
419.885	85.8951
420.098	54.2728
420.311	3.68794
420.523	18.44046
420.736	7.90283
420.948	45.84105
421.161	20.54805
421.373	41.62532
421.586	134.39237
421.798	20.54805
422.01	43.73317
422.223	109.088
422.435	39.51749
422.648	85.8951
422.86	-0.52684
423.073	43.73317
423.285	100.65391
423.497	109.088
423.71	35.30189
423.922	-4.74153
424.134	92.22017
424.347	85.8951
424.559	100.65391
424.771	37.40968
424.984	-4.74153
425.196	71.13739
425.408	62.70491
425.621	22.65567
425.833	26.87099
426.045	113.30518
426.257	41.62532
426.47	94.32857
426.682	134.39237
426.894	66.92111
427.106	123.8485
427.318	52.16483
427.531	90.11179
427.743	151.26366
427.955	69.02924
428.167	1.58054
428.379	134.39237
428.591	79.57023
428.804	41.62532
429.016	100.65391
429.228	66.92111
429.44	92.22017
429.652	117.52244
429.864	37.40968
430.076	-13.17063
430.288	69.02924
430.5	83.78679
430.712	121.73979
430.924	155.4817
431.136	98.54544
431.348	58.48881
431.56	109.088
431.772	7.90283
431.984	134.39237
432.196	50.05688
432.408	94.32857
432.62	117.52244
432.832	168.13631
433.044	147.04571
433.256	189.22898
433.468	109.088
433.679	113.30518
433.891	144.93677
434.103	88.00344
434.315	104.87091
434.527	115.4138
434.739	130.17476
434.95	191.33836
435.162	92.22017
435.374	121.73979
435.586	104.87091
435.798	125.95723
436.009	159.69982
436.221	142.82785
436.433	144.93677
436.645	136.50121
436.856	220.8718
437.068	185.01029
437.28	170.24549
437.491	119.63111
437.703	128.06598
437.915	273.61962
438.126	227.2009
438.338	201.88557
438.55	125.95723
438.761	117.52244
438.973	189.22898
439.184	218.76214
439.396	191.33836
439.608	94.32857
439.819	222.98148
440.031	241.96948
440.242	210.32369
440.454	191.33836
440.665	140.71894
440.877	180.79167
441.088	229.31064
441.3	151.26366
441.511	220.8718
441.723	130.17476
441.934	168.13631
442.146	225.09118
442.357	203.99507
442.569	176.57313
442.78	227.2009
442.991	182.90097
443.203	201.88557
443.414	155.4817
443.626	260.95905
443.837	153.37267
444.048	174.4639
444.26	210.32369
444.471	315.82634
444.682	193.44776
444.894	138.61006
445.105	254.62902
445.316	214.54287
445.528	271.50948
445.739	172.35468
445.95	269.39935
446.161	298.94277
446.373	227.2009
446.584	315.82634
446.795	241.96948
447.006	279.95016
447.217	269.39935
447.429	271.50948
447.64	303.16355
447.851	265.17916
448.062	216.6525
448.273	279.95016
448.484	273.61962
448.695	298.94277
448.907	214.54287
449.118	326.37915
449.329	273.61962
449.54	292.61173
449.751	252.51905
449.962	254.62902
450.173	269.39935
450.384	355.92937
450.595	353.81853
450.806	387.59405
451.017	277.83996
451.228	347.4861
451.439	341.15383
451.65	404.48342
451.861	311.60534
452.072	421.37383
452.283	296.83241
452.494	370.70575
452.705	328.48976
452.915	404.48342
453.126	410.8172
453.337	429.81942
453.548	408.70593
453.759	431.93086
453.97	389.70517
454.181	476.27464
454.391	374.92772
454.602	564.98169
454.813	434.04231
455.024	505.84085
455.235	505.84085
455.445	476.27464
455.656	457.26933
455.867	444.59982
456.078	537.52208
456.288	400.26098
456.499	501.61693
456.71	632.58408
456.921	480.4982
457.131	495.28116
457.342	448.82293
457.553	503.72888
457.763	550.19546
457.974	594.55612
458.184	596.66867
458.395	630.47131
458.606	626.24581
458.816	691.74653
459.027	714.99138
459.237	839.68967
459.448	729.78425
459.659	689.63343
459.869	634.69687
460.08	807.98352
460.29	829.12073
460.501	888.30962
460.711	776.27947
460.922	784.73367
461.132	974.99031
461.343	932.70549
461.553	903.10786
461.764	955.96179
461.974	814.32458
462.184	898.87975
462.395	1044.76605
462.605	996.13375
462.816	1046.88057
463.026	979.21894
463.236	1055.3387
463.447	1148.38356
463.657	1029.96458
463.867	1158.9574
464.078	1211.82803
464.288	1158.9574
464.498	1173.76094
464.709	1169.53134
464.919	1118.77737
465.129	1385.25557
465.339	1323.91994
465.55	1421.21133
465.76	1235.09178
465.97	1436.01668
466.18	1414.86618
466.391	1630.5988
466.601	1476.20267
466.811	1518.50359
467.021	1605.21917
467.231	1736.34329
467.441	1556.57412
467.651	1753.26167
467.862	1746.91731
468.072	1960.4888
468.282	1850.53738
468.492	1784.98299
468.702	2100.0186
468.912	2138.06677
469.122	2057.74001
469.332	2095.79087
469.542	2083.10751
469.752	2216.26871
469.962	2233.17572
470.172	2343.05699
470.382	2258.53516
470.592	2362.07226
470.802	2431.78787
471.012	2467.69747
471.222	2450.79923
471.432	2535.28331
471.642	2539.50704
471.852	2687.30717
472.062	2647.19597
472.272	2737.9673
472.482	2932.09184
472.691	3075.49595
472.901	2913.10669
473.111	2889.90102
473.321	3033.3256
473.531	3290.46487
473.741	3142.95543
473.95	3374.7188
474.16	3164.03315
474.37	3364.18858
474.58	3486.31196
474.79	3688.3122
474.999	3429.46888
475.209	3517.88576
475.419	3629.41329
475.628	3789.24673
475.838	3694.62191
476.048	3936.36167
476.258	3875.42591
476.467	4001.48109
476.677	4286.93066
476.886	4488.18651
477.096	4240.78146
477.306	4471.42288
477.515	4217.70299
477.725	4372.9082
477.935	4362.42509
478.144	4795.96449
478.354	4425.31564
478.563	4938.1727
478.773	4848.2592
478.982	4950.7154
479.192	4990.42848
479.401	5147.10919
479.611	5040.58047
479.82	5188.86867
480.03	5312.00474
480.239	5445.4839
480.449	5280.70667
480.658	5562.19919
480.868	5641.35677
481.077	5857.82434
481.287	5712.1531
481.496	5718.39852
481.705	6024.16421
481.915	6071.95901
482.124	5911.90136
482.333	6190.35337
482.543	6316.97168
482.752	6404.10093
482.961	6250.55983
483.171	6451.79714
483.38	6362.61594
483.589	6501.554
483.799	6694.23592
484.008	6994.2587
484.217	6408.24891
484.426	6961.17615
484.636	7081.073
484.845	6996.32617
485.054	6735.64687
485.263	7205.02506
485.472	7093.47182
485.682	7405.24603
485.891	7458.87858
486.1	7266.97115
486.309	7679.44408
486.518	7640.29609
486.727	7535.17663
486.936	7572.28396
487.146	7648.5384
487.355	7819.49039
487.564	7895.65153
487.773	8148.63433
487.982	8004.69808
488.191	8117.79915
488.4	8039.66313
488.609	8251.38588
488.818	8189.7409
489.027	8487.5286
489.236	8395.15542
489.445	8639.3475
489.654	8542.93395
489.863	8711.11807
490.072	8444.42595
490.281	8637.29658
490.49	8942.68183
490.698	8961.11511
490.907	8618.83745
491.116	9288.58333
491.325	9100.34288
491.534	9198.57318
491.743	9298.8097
491.952	9396.96187
492.16	9429.67087
492.369	9454.19989
492.578	9437.84747
492.787	9519.5993
492.996	9584.98239
493.204	9872.88786
493.413	9723.8683
493.622	9791.24323
493.831	9725.91021
494.039	10189.04114
494.248	9999.39043
494.457	10101.36829
494.665	10101.36829
494.874	10148.26627
495.083	10174.77057
495.291	10315.40851
495.5	10352.08613
495.709	10506.90043
495.917	10427.46561
496.126	10458.01978
496.335	10464.13026
496.543	10694.2092
496.752	10728.80924
496.96	10710.49201
497.169	10891.58695
497.377	10826.48486
497.586	10854.96848
497.794	11074.62438
498.003	10985.15071
498.211	11204.7305
498.42	11206.76306
498.628	11198.63275
498.837	11310.41014
499.045	11277.89628
499.254	11247.41217
499.462	11460.75351
499.671	11757.22478
499.879	11609.01354
500.087	11302.28192
500.296	11680.07966
500.504	11676.01904
500.713	11511.53314
500.921	11913.50702
501.129	11736.92466
501.338	11617.13595
501.546	11856.68289
501.754	11745.04481
501.962	11964.2374
502.171	11913.50702
502.379	12260.40544
502.587	12193.47737
502.795	12288.7968
503.004	11740.98475
503.212	12333.409
503.42	12173.19456
503.628	12363.82448
503.837	12288.7968
504.045	12540.20451
504.253	12351.65847
504.461	12296.90836
504.669	12515.87917
504.877	12793.5412
505.085	12718.56317
505.294	12641.55042
505.502	12815.83047
505.71	12844.19767
505.918	12590.8794
506.126	12722.61624
506.334	12661.81777
506.542	13156.16956
506.75	13073.1236
506.958	13071.09799
507.166	13075.14921
507.374	13006.27586
507.582	12994.12114
507.79	13069.07238
507.998	13322.23863
508.206	13397.16289
508.414	13338.43894
508.622	13287.81207
508.83	13306.03805
509.037	13761.58672
509.245	13257.43468
509.453	13623.92867
509.661	13625.95316
509.869	13881.01387
510.077	13470.05696
510.285	13804.09585
510.492	13907.327
510.7	13974.11987
510.908	13800.04742
511.116	13757.53816
511.324	13913.3992
511.531	14087.45913
511.739	14034.83826
511.947	14150.1974
512.155	13992.33562
512.362	14091.50682
512.57	14140.07846
512.778	14200.7913
512.985	14229.12333
513.193	14095.55451
513.401	14289.83356
513.608	14241.26551
513.816	14251.38394
514.024	14338.40058
514.231	14352.56577
514.439	14429.46116
514.646	14607.52685
514.854	14330.30614
515.061	14514.44831
515.269	14447.6729
515.477	14409.22575
515.684	14652.04182
515.892	14666.20557
516.099	14668.22895
516.307	14874.6102
516.514	15127.52088
516.722	14868.54027
516.929	14884.72674
517.136	14702.62642
517.344	14819.98061
517.551	14445.64938
517.759	15313.66202
517.966	15188.219
518.173	15020.28732
518.381	14987.9148
518.588	15254.98698
518.796	15416.84977
519.003	15645.48636
519.21	15234.75424
519.418	15594.90229
519.625	15582.76218
519.832	15358.17427
520.039	15242.84734
520.247	15576.69214
520.454	15305.5689
520.661	15799.26542
520.868	15439.10609
521.076	15562.52873
521.283	15783.07788
521.49	15655.60324
521.697	15641.43962
521.904	16163.5067
522.112	15704.16456
522.319	16100.77295
522.526	15944.95665
522.733	16234.33704
522.94	15997.569
523.147	16133.15147
523.354	16042.08788
523.561	16197.90975
523.768	16264.69355
523.975	16353.74166
524.183	16187.79116
524.39	16068.39482
524.597	16268.74112
524.804	16584.47495
525.011	16693.77944
525.218	16809.1638
525.425	16519.70498
525.632	16586.49905
525.838	16590.54725
526.045	16701.87633
526.252	16892.16452
526.459	16788.92036
526.666	16940.7523
526.873	17062.22842
527.08	17446.97025
527.287	17185.7393
527.494	16904.31133
527.701	17106.77213
527.907	17165.4909
528.114	17380.13894
528.321	17169.54056
528.528	17507.72893
528.735	17580.64313
528.941	17390.26468
529.148	17226.23698
529.355	17382.16408
529.562	17679.89421
529.768	18153.98172
529.975	17337.61166
530.182	17372.0384
530.388	17264.71086
530.595	17683.94544
530.802	17766.99866
531.008	17925.01813
531.215	17534.05858
531.422	17645.45927
531.628	17793.33378
531.835	17657.61267
532.042	18050.63851
532.248	18139.7968
532.455	17819.66949
532.661	18265.44093
532.868	18253.2812
533.074	18389.07249
533.281	18494.47443
533.487	18328.26834
533.694	18370.83088
533.9	18859.4083
534.107	18291.78747
534.313	18847.24177
534.52	18395.15309
534.726	18391.09935
534.933	18482.31214
535.139	18709.36453
535.345	18464.06896
535.552	18727.61194
535.758	19127.10842
535.965	18822.90916
536.171	18699.22722
536.377	19200.12982
536.584	18788.43894
536.79	19021.64238
536.996	19291.41405
537.203	19222.44297
537.409	18956.74566
537.615	19187.95922
537.821	19143.33494
538.028	19794.64223
538.234	19106.82563
538.44	19165.64683
538.646	19094.65616
538.853	19626.19456
539.059	19372.56259
539.265	19743.90195
539.471	19321.84398
539.677	19423.28379
539.883	19555.17105
540.09	19778.40506
540.296	19814.93908
540.502	19774.3458
540.708	19555.17105
540.914	19402.995
541.12	19910.3399
541.326	19942.81889
541.532	20019.96081
541.738	20084.92714
541.944	20032.14167
542.15	20028.08137
542.356	20409.82336
542.562	20432.16393
542.768	20200.65908
542.974	20430.13295
543.18	20312.3432
543.386	20637.3146
543.592	20793.74516
543.798	20915.65613
544.004	20436.2259
544.21	20673.88057
544.415	20531.68714
544.621	21118.874
544.827	20901.43242
545.033	20988.80984
545.239	20875.01749
545.445	21279.44495
545.651	21035.54972
545.856	20942.07213
546.062	21051.80758
546.268	21088.38871
546.474	20639.346
546.679	20635.28319
546.885	20771.39643
547.091	20883.14508
547.297	20844.53959
547.502	21053.83983
547.708	21021.32431
547.914	20980.68139
548.119	21061.96887
548.325	21068.0657
548.531	20858.76249
548.736	21305.87043
548.942	20805.93558
549.147	21139.19804
549.353	21616.92886
549.559	21381.08516
549.764	21147.32776
549.97	21039.61416
550.175	21403.44735
550.381	21631.16252
550.586	21204.23768
550.792	21580.32893
550.997	21675.8981
551.203	21635.22931
551.408	21757.24037
551.614	21663.6973
551.819	21891.46867
552.025	22206.76709
552.23	21940.28312
552.435	22182.35367
552.641	22023.67954
552.846	21643.36294
553.052	21808.08244
553.257	22227.11202
553.462	22377.67593
553.668	22296.28754
553.873	22003.33836
554.078	22446.86064
554.283	22241.35369
554.489	22452.96538
554.694	22666.65132
554.899	22202.69815
555.105	22638.15761
555.31	22540.47012
555.515	22432.61639
555.72	22534.36492
555.925	22147.7689
556.131	22796.91703
556.336	22768.42019
556.541	22715.49929
556.746	22457.03522
556.951	22703.28711
557.156	22713.46392
557.361	22967.91213
557.567	22676.82782
557.772	22770.45566
557.977	22695.14573
558.182	22866.12644
558.387	22971.98374
558.592	22974.01954
558.797	23153.18357
559.002	23210.19565
559.207	22684.96908
559.412	22949.59008
559.617	22882.41158
559.822	22933.30405
560.027	23114.49826
560.232	23238.70264
560.437	23259.06517
560.642	23287.57324
560.847	23417.90382
561.051	23564.54103
561.256	23533.99029
561.461	24037.14442
561.666	23544.17379
561.871	23430.12297
562.076	23287.57324
562.281	23698.9724
562.485	23562.50429
562.69	23369.02833
562.895	23446.41535
563.1	23796.74885
563.305	23340.51847
563.509	23729.52681
563.714	23639.90245
563.919	23835.4539
564.123	23336.44569
564.328	23780.4523
564.533	23833.41677
564.737	23517.69685
564.942	23637.8656
565.147	23672.49246
565.351	24053.44386
565.556	23717.30496
565.761	24010.65822
565.965	23949.53803
566.17	23949.53803
566.374	23945.46344
566.579	24016.77038
566.784	23861.93691
566.988	24275.54127
567.193	24253.12631
567.397	24465.0624
567.602	24513.97472
567.806	23833.41677
568.011	24379.46941
568.215	24487.48036
568.42	24542.50759
568.624	24214.41032
568.828	24507.8606
569.033	24434.49295
569.237	24709.63852
569.442	24809.51731
569.646	24043.25669
569.85	24090.11825
570.055	24642.37651
570.259	24986.86717
570.463	25082.68413
570.668	24699.44713
570.872	24458.94846
571.076	24742.25137
571.281	24791.1718
571.485	24889.01678
571.689	24905.32481
571.893	24758.55802
572.098	24795.24856
572.302	25186.66132
572.506	25070.4519
572.71	24815.63253
572.914	25013.36923
573.119	24583.26969
573.323	24895.13227
573.527	25064.33581
573.731	25243.74927
573.935	25174.42841
574.139	25410.94507
574.343	25466.00042
574.547	24995.02161
574.751	25443.57028
574.955	25015.40787
575.159	25119.3813
575.364	25221.32166
575.568	25062.29712
575.772	25419.10132
575.976	25258.02152
576.18	25225.39939
576.383	25463.96131
576.587	25368.12528
576.791	25504.74398
576.995	25506.78313
577.199	25480.27428
577.403	25822.87602
577.607	25722.94484
577.811	25939.12815
578.015	25886.10012
578.219	25757.61432
578.422	25639.33249
578.626	25930.96991
578.83	25649.52895
579.034	26106.3784
579.238	25802.48153
579.442	25957.4843
579.645	25798.40265
579.849	25837.15227
580.053	26177.7693
580.257	26065.58455
580.46	26281.7998
580.664	26306.2782
580.868	26546.99496
581.071	26738.76799
581.275	26067.62423
581.479	26067.62423
581.682	26296.07884
581.886	26402.15422
582.09	26449.07358
582.293	26644.91993
582.497	26463.35355
582.7	26512.31405
582.904	26773.45177
583.107	26720.40617
583.311	26447.03359
583.515	26442.95361
583.718	26606.15754
583.922	26926.47349
584.125	26787.73345
584.329	26400.11426
584.532	26391.95447
584.735	26977.48251
584.939	26879.54597
585.142	26704.08464
585.346	26459.27355
585.549	26751.00928
585.753	26455.19356
585.956	27226.41894
586.159	26755.08972
586.363	27012.16915
586.566	27093.78636
586.769	26908.11045
586.973	27024.41159
587.176	27034.61366
587.379	27083.58409
587.582	27365.17901
587.786	26808.13598
587.989	27083.58409
588.192	26877.50566
588.395	26991.7652
588.599	27322.326
588.802	27214.1757
589.005	26428.67375
589.208	27330.48843
589.411	27312.12298
589.615	27432.5206
589.818	27534.55593
590.021	27730.47235
590.224	27573.33016
590.427	27534.55593
590.63	27585.57475
590.833	27087.66499
591.036	27738.63577
591.239	27899.86725
591.442	27771.28966
591.645	28108.05014
591.848	27897.8263
592.051	28283.5859
592.254	27720.26809
592.457	28265.2155
592.66	27818.23015
592.863	28065.188
593.066	27903.94916
593.269	27983.54719
593.472	27681.4922
593.675	28038.65454
593.878	27930.48164
594.081	28383.60407
594.284	28412.18117
594.486	28493.83116
594.689	28224.39271
594.892	28138.66626
595.095	28418.30486
595.298	28001.91622
595.5	28128.46086
595.703	28422.38732
595.906	28165.20043
596.109	28561.19368
596.311	28951.10225
596.514	28755.12251
596.717	28751.0397
596.92	28740.83269
597.122	28340.73883
597.325	28542.82197
597.528	28591.81339
597.73	29087.88545
597.933	28863.31847
598.136	29157.29961
598.338	28620.392
598.541	28789.82656
598.743	29053.17883
598.946	28898.02346
599.148	28920.47979
599.351	28906.18938
599.554	29187.92388
599.756	28836.77957
599.959	29445.17704
600.161	29243.04816
600.363	29073.59445
600.566	28963.35131
600.768	29165.46606
600.971	29077.67759
601.173	28677.54984
601.376	28989.89105
601.578	28814.32371
601.78	29328.79855
601.983	29030.72176
602.185	29157.29961
602.388	29067.46976
602.59	29222.63167
602.792	29351.25729
602.995	29477.8453
603.197	29298.1732
603.399	29539.09902
603.601	29120.55079
603.804	29204.25692
604.006	29931.14584
604.208	29416.59253
604.41	29526.8482
604.613	29684.07
604.815	29518.68101
605.017	29388.00823
605.219	29477.8453
605.421	28806.15798
605.623	29155.258
605.826	29330.84025
606.028	29055.22039
606.23	28875.56726
606.432	28944.97774
606.634	29916.85176
606.836	29641.19069
607.038	29994.44888
607.24	29522.76461
607.442	29506.43025
607.644	29579.93537
607.846	29857.63398
608.048	29763.70426
608.25	29949.52403
608.452	29798.41715
608.654	29953.60809
608.856	29749.41081
609.058	29775.95583
609.26	29443.13528
609.462	29604.43739
609.664	29780.03969
609.866	29488.05419
610.067	29459.46937
610.269	29741.24314
610.471	29422.71777
610.673	30145.5638
610.875	29692.23754
611.077	30049.58468
611.278	29557.47533
611.48	29998.53299
611.682	29620.77215
611.884	29984.23864
612.085	29316.54838
612.287	29655.48374
612.489	29716.74026
612.69	30143.52166
612.892	29884.17977
613.094	30119.01613
613.295	29647.31628
613.497	30310.9807
613.699	30327.3186
613.9	30100.63708
614.102	30131.26887
614.304	30061.83719
614.505	29980.15455
614.707	30194.5754
614.908	29439.05177
615.11	29955.65012
615.311	29428.84301
615.513	29622.814
615.714	29765.74618
615.916	29506.43025
616.117	29808.62688
616.319	30157.81664
616.52	29434.96826
616.722	29745.32697
616.923	30108.80553
617.124	30174.15382
617.326	29404.34209
617.527	29951.56606
617.729	29671.81872
617.93	29818.83664
618.131	29884.17977
618.333	29592.18636
618.534	29604.43739
618.735	29728.99168
618.937	29492.13775
619.138	29614.6466
619.339	29635.06512
619.54	30176.19597
619.742	29984.23864
619.943	29971.98639
620.144	29349.21558
620.345	29543.18264
620.546	29606.47923
620.748	30214.99711
620.949	30108.80553
621.15	30088.38444
621.351	29624.85585
621.552	29745.32697
621.753	30049.58468
621.954	30127.18462
622.155	29684.07
622.356	29939.31391
622.558	29906.64173
622.759	30392.67096
622.96	30127.18462
623.161	30043.45844
623.362	29955.65012
623.563	30682.68755
623.764	30116.974
623.965	29839.25624
624.166	30208.87058
624.366	29565.6426
624.567	29953.60809
624.768	29367.591
624.969	29410.46731
625.17	29867.84388
625.371	29528.89
625.572	29708.57267
625.773	29671.81872
625.973	30010.78533
626.174	29708.57267
626.375	30157.81664
626.576	30161.90092
626.777	29914.80975
626.977	29639.14884
627.178	30061.83719
627.379	30161.90092
627.58	30278.30514
627.78	29978.11251
627.981	29863.75992
628.182	30212.95493
628.382	30362.03688
628.583	29978.11251
628.784	30212.95493
628.984	30214.99711
629.185	30835.87595
629.386	30439.64375
629.586	30862.42938
629.787	30678.60263
629.987	30519.29477
630.188	29988.32273
630.388	29853.55003
630.589	29959.73418
630.79	30380.4173
630.99	29882.13778
631.191	30041.41636
631.391	30008.74327
631.591	29524.8064
631.792	29633.02326
631.992	30500.9136
632.193	30500.9136
632.393	30455.98227
632.594	30386.54412
632.794	30598.94772
632.994	30568.31174
633.195	30729.66452
633.395	30308.93847
633.595	30611.20219
633.796	30376.33275
633.996	30746.0045
634.196	30353.86784
634.397	30811.36529
634.597	30629.58399
634.797	30987.02941
634.997	30378.37502
635.198	30421.26302
635.398	30280.34735
635.598	30703.11223
635.798	30609.15978
635.998	30603.03254
636.199	30529.50658
636.399	30758.25955
636.599	30165.98522
636.799	30357.95236
636.999	30147.60593
637.199	30766.4296
637.399	30441.68606
637.599	30903.28127
637.799	30337.52982
637.999	30507.04064
638.199	30362.03688
638.399	30488.65954
638.599	29820.8786
638.799	30370.20594
638.999	30515.21006
639.199	30821.57804
639.399	30543.80316
639.599	31076.90814
639.799	30931.87793
639.999	30739.877
640.199	30754.17453
640.399	30756.21704
640.599	30088.38444
640.799	31285.27445
640.998	31166.78972
641.198	30776.6422
641.398	31099.37826
641.598	31295.4889
641.798	31226.03144
641.997	30805.23766
642.197	30494.78656
642.397	30866.51454
642.597	31050.35277
642.796	31003.37079
642.996	30878.77007
643.196	30647.96589
643.395	30549.93029
643.595	30782.76978
643.795	30727.62203
643.994	31015.62688
644.194	31191.30338
644.394	31174.96091
644.593	30954.34692
644.793	31193.34619
644.992	30566.26935
645.192	30786.85483
645.392	30823.62059
645.591	31048.31005
645.791	30976.81609
645.99	30893.06825
646.19	31064.65178
646.389	30682.68755
646.589	31136.14794
646.788	30923.70743
646.987	30876.72748
647.187	30901.23866
647.386	30529.50658
647.586	30899.19606
647.785	31119.8058
647.984	31495.70009
648.184	31125.9341
648.383	30748.04701
648.582	30635.71128
648.782	30766.4296
648.981	30580.5661
649.18	30962.51751
649.38	31315.91791
649.579	31499.78619
649.778	31581.50972
649.977	31955.43086
650.177	31945.21361
650.376	31454.83939
650.575	30987.02941
650.774	31458.92543
650.973	31287.31734
651.173	31620.32936
651.372	31369.03407
651.571	31432.36629
651.77	31458.92543
651.969	31552.90618
652.168	31563.12169
652.367	31197.43183
652.566	31223.9886
652.765	31460.96846
652.964	31158.61854
653.163	31695.92728
653.362	31228.07428
653.561	31181.08932
653.76	31254.63135
653.959	31767.44106
654.158	31887.99791
654.357	32006.51781
654.556	31242.37421
654.755	31516.13068
654.954	31501.82925
655.153	31283.23157
655.352	31456.88241
655.551	31232.15997
655.749	31313.875
655.948	31499.78619
656.147	31013.58419
656.346	31140.23349
656.545	31048.31005
656.743	31238.28851
656.942	31064.65178
657.141	31364.94817
657.34	31226.03144
657.538	31695.92728
657.737	31832.82703
657.936	32402.99561
658.135	31910.47533
658.333	31563.12169
658.532	31475.26966
658.731	31295.4889
658.929	31356.7764
659.128	31307.74628
659.326	31125.9341
659.525	31501.82925
659.724	31305.70338
659.922	31747.00833
660.121	31309.78919
660.319	31105.50651
660.518	31179.04652
660.716	31273.01717
660.915	31528.38912
661.113	31941.12673
661.312	31315.91791
661.51	31546.77689
661.709	31428.2803
661.907	31283.23157
662.105	30991.11474
662.304	31066.6945
662.502	31687.75442
662.701	31413.97936
662.899	31473.22662
663.097	31456.88241
663.296	31127.97686
663.494	31281.18869
663.692	31538.60453
663.891	31203.56029
664.089	31546.77689
664.287	31295.4889
664.485	30915.53695
664.684	31601.94103
664.882	31354.73346
665.08	31336.34707
665.278	31277.10293
665.476	31489.57094
665.675	31066.6945
665.873	31375.16292
666.071	31009.49883
666.269	31665.27918
666.467	31215.81726
666.665	31853.26053
666.863	31174.96091
667.061	31405.80743
667.259	31540.64762
667.457	31628.50199
667.655	31675.49517
667.853	31528.38912
668.051	31232.15997
668.249	31262.80281
668.447	31117.76304
668.645	30835.87595
668.843	31305.70338
669.041	31334.30415
669.239	31285.27445
669.437	31273.01717
669.635	31387.42068
669.833	31626.45883
670.031	31252.58849
670.229	30862.42938
670.426	31074.86541
670.624	30715.36711
670.822	30664.30545
671.02	30639.79614
671.218	30748.04701
671.415	30764.38708
671.613	30874.68489
671.811	30464.15155
672.009	30846.08878
672.206	30976.81609
672.404	31301.61758
672.602	31373.11997
672.799	31565.1648
672.997	31671.40877
673.195	31597.85476
673.392	31479.35573
673.59	31865.52072
673.788	31287.31734
673.985	31166.78972
674.183	31360.86228
674.38	31491.61399
674.578	31718.4028
674.775	30460.06691
674.973	30392.67096
675.17	30842.00364
675.368	30811.36529
675.565	30699.02729
675.763	30639.79614
675.96	30504.99829
676.158	30774.59968
676.355	30692.89988
676.553	31332.26123
676.75	30654.09321
676.947	30623.45671
677.145	30335.48757
677.342	30431.47452
677.539	30415.13613
677.737	30956.38957
677.934	30519.29477
678.131	30692.89988
678.329	30511.12535
678.526	30578.5237
678.723	30933.92056
678.92	30711.28214
679.118	30329.36084
679.315	30984.98674
679.512	30674.51771
679.709	30660.22055
679.906	30635.71128
680.104	30733.74951
680.301	30566.26935
680.498	30439.64375
680.695	30014.86945
680.892	30782.76978
681.089	30372.24821
681.286	30715.36711
681.483	29712.65646
681.68	30127.18462
681.877	30161.90092
682.075	30104.72131
682.272	30168.02737
682.469	30453.93995
682.665	30090.42654
682.862	30296.6851
683.059	30078.17394
683.256	30153.73235
683.453	29822.92055
683.65	30208.87058
683.847	29961.77621
684.044	29385.96651
684.241	29614.6466
684.438	30018.95358
684.635	29539.09902
684.831	29929.10382
685.028	29463.5529
685.225	29498.2631
685.422	29371.67444
685.619	29769.83004
685.815	28973.55888
686.012	29649.35814
686.209	28920.47979
686.405	29420.67602
686.602	28824.5309
686.799	28867.4014
686.996	28685.71532
687.192	28495.87243
687.389	28887.81608
687.586	28642.84677
687.782	29104.21809
687.979	28900.06494
688.175	28949.06075
688.372	29116.46761
688.568	29171.5909
688.765	29769.83004
688.962	29569.72624
689.158	29696.32131
689.355	29349.21558
689.551	29085.84388
689.748	29316.54838
689.944	29377.7996
690.14	29049.09572
690.337	28740.83269
690.533	29022.55558
690.73	28873.52579
690.926	29132.80036
691.123	29169.54929
691.319	28965.39282
691.515	28971.51736
691.712	28432.5935
691.908	28579.56548
692.104	28434.63474
692.301	28434.63474
692.497	28377.48044
692.693	28836.77957
692.889	28842.90392
693.086	28906.18938
693.282	28863.31847
693.478	28530.57421
693.674	28814.32371
693.87	29300.21488
694.067	28806.15798
694.263	28881.69166
694.459	27914.15394
694.655	27934.56358
694.851	28085.59848
695.047	28404.01626
695.243	29006.22328
695.439	28763.28814
695.635	28569.35892
695.831	28432.5935
696.027	28065.188
696.224	28199.89924
696.42	28459.1297
696.615	28573.44154
696.811	28651.01217
697.007	28616.30933
697.203	28442.79971
697.399	28150.91277
697.595	27761.08529
697.791	27752.92181
697.987	27936.60455
698.183	28428.51103
698.379	28003.95723
698.575	28412.18117
698.77	28075.39323
698.966	27779.45318
699.162	27330.48843
699.358	27795.78027
699.554	27030.53283
699.749	27536.59666
699.945	27742.71749
700.141	27803.94385
700.337	27824.35287
700.532	28026.40839
700.728	28171.32372
700.924	27767.2079
701.119	27608.02327
701.315	27650.87996
701.511	27577.41169
701.706	28095.80377
701.902	27765.16703
702.097	27873.33499
702.293	27810.06654
702.489	27446.80536
702.684	27783.53494
702.88	27571.2894
703.075	27567.20788
703.271	27822.31196
703.466	27795.78027
703.662	28038.65454
703.857	28024.36737
704.053	28020.28533
704.248	27605.98249
704.443	27675.36973
704.639	27271.31125
704.834	27940.6865
705.03	27477.41576
705.225	27481.49717
705.42	27301.92
705.616	27718.22724
705.811	27352.93523
706.006	27669.24727
706.202	27650.87996
706.397	27583.53398
706.592	27236.62168
706.787	27567.20788
706.983	27175.40574
707.178	27695.778
707.373	27138.67675
707.568	27357.01649
707.763	26863.22353
707.959	27434.56128
708.154	27050.93705
708.349	26857.10264
708.544	27095.82681
708.739	27014.20956
708.934	26871.38473
709.129	27030.53283
709.324	27193.7704
709.519	27130.51481
709.714	26728.56696
709.909	27001.96716
710.104	26722.44636
710.299	26765.29085
710.494	26332.79674
710.689	26738.76799
710.884	26161.4512
711.079	26659.20095
711.274	26065.58455
711.469	26759.17017
711.664	26879.54597
711.859	27314.16358
712.054	26981.56327
712.249	26773.45177
712.443	27163.16269
712.638	27124.39337
712.833	26936.67522
713.028	27387.62605
713.223	26795.89445
713.417	27122.35289
713.612	26757.12994
713.807	26671.44189
714.002	26824.45811
714.196	26885.6669
714.391	26283.83966
714.586	26210.40585
714.78	26230.80391
714.975	26440.91363
715.17	26208.36605
715.364	26034.98963
715.559	26291.9991
715.754	26646.96007
715.948	26071.70359
716.143	26279.75994
716.337	25896.29772
716.532	26434.79368
716.726	26422.55383
716.921	26234.88354
717.115	26000.31587
717.31	25771.89015
717.504	26069.66391
717.699	26275.68024
717.893	25898.33725
718.088	25614.86121
718.282	25888.13963
718.476	26165.53071
718.671	25794.32379
718.865	26037.02928
719.059	25714.78739
719.254	25741.2992
719.448	25928.93036
719.642	26267.52085
719.837	25867.74455
720.031	26141.05372
720.225	25771.89015
720.419	25908.5349
720.614	25892.21867
720.808	25902.4163
721.002	25435.41393
721.196	25565.9195
721.39	25060.25843
721.585	25392.59362
721.779	25176.46722
721.973	25174.42841
722.167	24988.90577
722.361	25127.53633
722.555	25196.85547
722.749	25223.36052
722.943	25188.70015
723.137	25017.4465
723.331	24416.15156
723.525	24723.90656
723.719	24962.40407
723.913	25294.72209
724.107	25092.87771
724.301	24744.28969
724.495	24817.67094
724.689	24772.82647
724.883	24846.20893
725.077	25021.52379
725.271	25311.03367
725.465	25013.36923
725.659	25188.70015
725.853	25031.71704
726.046	25092.87771
726.24	24903.2863
726.434	24658.6822
726.628	25054.14238
726.822	24852.32427
727.015	25058.21975
727.209	24827.86302
727.403	24681.10279
727.596	24907.36332
727.79	25033.75569
727.984	24721.86827
728.177	25066.3745
728.371	25039.87168
728.565	24913.47888
728.758	25048.02635
728.952	24884.9398
729.146	24717.79167
729.339	25003.17608
729.533	24811.55572
729.726	24831.93988
729.92	24944.05697
730.113	24866.59349
730.307	24778.94156
730.5	25215.20508
730.694	24968.51981
730.887	24833.9783
731.081	25168.31199
731.274	24840.09361
731.468	24242.93779
731.661	23949.53803
731.854	24440.60679
732.048	24344.82593
732.241	24438.56884
732.435	24776.90319
732.628	24471.17636
732.821	24428.37913
733.014	24707.60024
733.208	24903.2863
733.401	24750.40467
733.594	24342.7881
733.788	24265.35261
733.981	24489.51838
734.174	24793.21018
734.367	24536.39336
734.56	24776.90319
734.754	24522.12692
734.947	24569.00284
735.14	24477.29034
735.333	23876.1972
735.526	23953.61263
735.719	23845.63962
735.912	24114.56834
736.105	24088.08076
736.298	24157.35695
736.491	24122.71846
736.684	24139.01883
736.877	24285.73
737.07	24597.53666
737.263	24497.67045
737.456	24202.18442
737.649	24000.47134
737.842	23723.41587
738.035	23619.53409
738.228	23672.49246
738.421	24163.46971
738.614	24114.56834
738.807	24460.98644
739	24016.77038
739.192	24171.62009
739.385	24090.11825
739.578	23866.01126
739.771	23980.09781
739.964	24155.31937
740.156	24310.18322
740.349	24010.65822
740.542	24375.39366
740.735	23961.76186
740.927	24314.25879
741.12	23925.09067
741.313	23462.70793
741.505	23939.35158
741.698	23574.72476
741.891	23497.33032
742.083	23560.46756
742.276	23902.68096
742.468	24183.84575
742.661	24126.79353
742.854	24265.35261
743.046	24367.24221
743.239	24232.74935
743.431	24689.25581
743.624	24206.2597
743.816	24071.78094
744.009	24106.41826
744.201	23635.82875
744.393	23295.71852
744.586	22982.1628
744.778	23039.16713
744.971	23145.0392
745.163	23929.1652
745.355	23955.64994
745.548	23969.91114
745.74	24067.70601
745.932	23880.27159
746.125	23326.26378
746.317	23291.64588
746.509	23214.26804
746.702	23010.66464
746.894	22532.32986
747.086	22813.20124
747.278	22546.57534
747.471	22870.1977
747.663	22965.87634
747.855	23073.77817
748.047	23273.31913
748.239	23605.27642
748.431	23362.91903
748.623	23073.77817
748.815	22593.38316
749.008	23033.0594
749.2	22666.65132
749.392	22697.18107
749.584	22526.22471
749.776	22164.04395
749.968	22505.87443
750.16	22636.12237
750.352	22021.64541
750.544	22227.11202
750.736	22654.43965
750.928	22326.8075
751.12	22379.71071
751.311	22389.88469
751.503	22603.55902
751.695	22282.04517
751.887	22371.5716
752.079	22927.19684
752.271	22483.48953
752.463	22585.24254
752.654	22320.70344
752.846	22381.7455
753.038	22400.05876
753.23	22735.85321
753.421	22090.80812
753.613	22137.59712
753.805	22658.51019
753.997	22330.87689
754.188	22595.41833
754.38	22436.68616
754.572	22286.1144
754.763	21999.27017
754.955	21989.09976
755.146	22528.25975
755.338	22389.88469
755.53	22058.26042
755.721	21714.5349
755.913	21985.03162
756.104	22178.28482
756.296	22530.29481
756.487	22371.5716
756.679	21960.62312
756.87	21942.3171
757.062	21523.39825
757.253	22166.07835
757.445	21976.8954
757.636	22261.69925
757.827	22064.36304
758.019	22021.64541
758.21	22166.07835
758.401	21938.24914
758.593	21623.02898
758.784	21570.16251
758.975	21919.9435
759.167	21641.32953
759.358	21732.83703
759.549	21639.29612
759.74	21665.73075
759.932	21586.42883
760.123	21976.8954
760.314	21401.4144
760.505	21106.67977
760.696	21151.39265
760.888	21438.00805
761.079	21192.04243
761.27	21122.93878
761.461	20933.94406
761.652	21238.79169
761.843	20511.37547
762.034	20826.2533
762.225	20604.81264
762.416	21053.83983
762.607	20828.28509
762.798	20938.00809
762.989	20795.77688
763.18	20734.82686
763.371	20515.43777
763.562	20679.97503
763.753	20883.14508
763.944	20976.61719
764.135	20537.78073
764.326	20448.41193
764.517	20367.1746
764.708	20651.53454
764.899	20401.69965
765.089	20105.23
765.28	20472.78444
765.471	20578.40559
765.662	20021.99094
765.853	20206.75061
766.043	19794.64223
766.234	20192.5371
766.425	19784.49397
766.615	20346.86632
766.806	20300.15886
766.997	20484.97091
767.187	20188.47613
767.378	20149.89778
767.569	20281.88264
767.759	19967.17884
767.95	20095.07852
768.141	20369.20546
768.331	19997.62963
768.522	19770.28657
768.712	19881.92166
768.903	19658.66416
769.093	19685.04649
769.284	19451.68879
769.474	19666.78173
769.665	19455.74671
769.855	19415.16822
770.046	19904.25021
770.236	20062.59448
770.426	19772.31618
770.617	19752.02022
770.807	19362.41866
770.998	19609.96017
771.188	19756.07938
771.378	19589.66755
771.569	19252.8708
771.759	19551.11272
771.949	19599.81381
772.139	19697.2232
772.33	19646.48794
772.52	19697.2232
772.71	19461.83363
772.9	19405.02386
773.09	19384.73544
773.281	19459.80466
773.471	19232.58548
773.661	19263.01362
773.851	19084.51504
774.041	18904.02011
774.231	18952.68975
774.421	18991.22153
774.611	18835.0754
774.802	18879.68615
774.992	18605.96856
775.182	18875.63055
775.372	18603.94129
775.562	18727.61194
775.752	18985.13747
775.942	18638.40541
776.131	18859.4083
776.321	18336.37536
776.511	18488.39327
776.701	18340.4289
776.891	18561.3695
777.081	18837.10312
777.271	18245.17479
777.461	18160.06103
777.651	17991.87889
777.84	18334.3486
778.03	18028.35003
778.22	18164.11392
778.41	18141.82321
778.599	18391.09935
778.789	18387.04563
778.979	18018.21904
779.169	17874.36857
779.358	17779.15326
779.548	18285.70744
779.738	17981.74823
779.927	18206.67014
780.117	17914.88804
780.307	17922.9921
780.496	18062.79605
780.686	17971.61765
780.875	17681.91983
781.065	17558.36335
781.254	17764.9729
781.444	17995.93118
781.633	17957.43499
781.823	17884.49831
782.012	17775.10171
782.202	17754.84417
782.391	17525.95709
782.581	17487.47572
782.77	17197.88849
782.96	17305.21083
783.149	17218.13735
783.338	17714.33011
783.528	17580.64313
783.717	17590.77043
783.906	17509.75427
784.096	17564.43961
784.285	17171.56539
784.474	17203.96312
784.663	16950.87494
784.853	17054.12971
785.042	16936.70326
785.231	16851.67584
785.42	16819.28562
785.61	16926.58071
785.799	16914.43373
785.988	16896.21345
786.177	16699.8521
786.366	16618.88491
786.555	16738.31283
786.744	16843.57822
786.933	16896.21345
787.122	16697.82788
787.312	16916.45822
787.501	16584.47495
787.69	16748.43421
787.879	17001.48915
788.068	16208.02839
788.257	16276.83627
788.445	16220.17081
788.634	16624.95732
788.823	16404.33881
789.012	16604.71602
789.201	16274.81248
789.39	16432.67374
789.579	16195.88603
789.768	16171.6015
789.957	16365.88486
790.145	16363.86099
790.334	15702.14116
790.523	16137.19881
790.712	16001.61614
790.9	16193.86231
791.089	15855.92238
791.278	16076.48932
791.467	15912.58027
791.655	16234.33704
791.844	16060.30035
792.033	16165.5304
792.221	15944.95665
792.41	15785.10132
792.599	15509.92208
792.787	15465.4091
792.976	15600.97235
793.164	15663.69676
793.353	15706.18796
793.541	16048.15869
793.73	15696.07097
793.918	16092.67838
794.107	15880.20422
794.295	15835.68765
794.484	15558.48205
794.672	15530.15536
794.861	15254.98698
795.049	15265.10335
795.238	14937.33256
795.426	15188.219
795.614	15477.54897
795.803	15467.43241
795.991	15398.64009
796.179	15526.1087
796.368	15277.24301
796.556	14996.00794
796.744	14765.35054
796.932	15085.03216
797.121	14771.42057
797.309	14996.00794
797.497	15287.35939
797.685	15275.21973
797.874	15378.40716
798.062	15485.64224
798.25	14955.54219
798.438	15339.96469
798.626	14904.95979
798.814	15103.24162
799.002	14571.10511
799.19	14569.08167
799.378	14858.4237
799.566	15038.49683
799.755	14686.43941
799.943	14737.02362
800.131	14817.95728
800.318	15293.42923
800.506	15127.52088
800.694	14979.82166
800.882	14955.54219
801.07	14941.37915
801.258	14635.85461
801.446	14718.81336
801.634	14386.96662
801.822	14686.43941
802.01	14915.07629
802.197	15358.17427
802.385	15220.59134
802.573	15042.54338
802.761	14824.02726
802.949	15275.21973
803.136	15127.52088
803.324	14935.30926
803.512	14573.12855
803.699	14465.88453
803.887	14516.47179
804.075	14722.86009
804.262	14803.79398
804.45	14900.91318
804.638	14565.03479
804.825	14844.26048
805.013	14692.50954
805.201	14989.93808
805.388	14615.62052
805.576	14862.47033
805.763	14987.9148
805.951	14664.18218
806.138	14836.1672
806.326	14615.62052
806.513	14332.32976
806.701	14840.21384
806.888	14698.57967
807.075	14886.75005
807.263	15060.75287
807.45	14963.63535
807.638	14813.91063
807.825	15014.21748
808.012	14975.77508
808.2	14494.2135
808.387	14848.30712
808.574	15064.79942
808.761	14803.79398
808.949	14787.6073
809.136	14407.2022
809.323	14856.40038
809.51	14678.34588
809.698	14536.70646
809.885	14423.39055
810.072	14680.36927
810.259	14631.8078
810.446	14322.21168
810.633	14439.57881
810.82	14577.17543
811.008	14716.79
811.195	15036.47355
811.382	14639.90142
811.569	15074.9158
811.756	14488.14303
811.943	15101.21835
812.13	14710.7199
812.317	14791.65397
812.504	14842.23716
812.691	14882.70343
812.878	15050.63649
813.064	14771.42057
813.251	14437.55528
813.438	14407.2022
813.625	14504.33092
813.812	14706.67316
813.999	14613.5971
814.186	14797.72398
814.372	14633.83121
814.559	14660.13539
814.746	14441.60234
814.933	14613.5971
815.12	14609.55027
815.306	14945.42573
815.493	14609.55027
815.68	14777.4906
815.866	14482.07254
816.053	14544.80029
816.24	14399.10799
816.426	14577.17543
816.613	14344.47139
816.799	14283.76261
816.986	14251.38394
817.173	14229.12333
817.359	14314.1172
817.546	14433.50823
817.732	14055.07724
817.919	14239.24182
818.105	13842.55537
818.292	14245.31289
818.478	14026.7426
818.665	14338.40058
818.851	13949.83188
819.037	14221.0285
819.224	14441.60234
819.41	14362.68372
819.597	14065.19664
819.783	14591.33946
819.969	14221.0285
820.156	14556.941
820.342	14297.92813
820.528	14342.44779
820.714	14352.56577
820.901	14293.88085
821.087	14014.59904
821.273	14243.2892
821.459	13988.28769
821.646	13998.40749
821.832	13785.87781
822.018	13889.11027
822.204	13627.97765
822.39	13955.90391
822.576	13824.33783
822.762	13800.04742
822.948	13459.93309
823.134	13634.0511
823.32	13478.156
823.507	14206.86248
823.693	13731.22224
823.879	13826.36201
824.065	13603.68356
824.25	13684.662
824.436	13804.09585
824.622	13816.24107
824.808	13777.78083
824.994	13876.96565
825.18	13619.87968
825.366	13658.34459
825.552	13893.15845
825.738	13735.27088
825.923	13577.3644
826.109	13522.69963
826.295	13251.35908
826.481	13500.42804
826.667	13439.68504
826.852	13597.60996
827.038	13565.2169
827.224	13858.74855
827.409	13441.70986
827.595	13680.6132
827.781	13324.26368
827.966	13627.97765
828.152	13340.46396
828.338	13393.11307
828.523	13328.31378
828.709	13411.33713
828.894	13052.86728
829.08	13154.14414
829.266	13198.70227
829.451	13397.16289
829.637	12880.66821
829.822	13449.80911
830.008	13044.76461
830.193	12864.45929
830.378	12775.30402
830.564	12771.25125
830.749	13101.48165
830.935	13105.53273
831.12	12716.53663
831.305	13014.3789
831.491	12718.56317
831.676	12783.40949
831.861	12586.82555
832.047	12406.40357
832.232	12313.13114
832.417	12588.85248
832.602	12706.40383
832.788	12767.19846
832.973	13058.94423
833.158	13115.66033
833.343	13028.55904
833.528	13014.3789
833.714	12580.74473
833.899	12852.30238
834.084	12815.83047
834.269	13085.27717
834.454	12448.97969
834.639	12590.8794
834.824	12765.17205
835.009	12163.05288
835.194	12025.10723
835.379	12422.62339
835.564	11763.31464
835.749	12128.56977
835.934	12006.84703
836.119	12116.39874
836.304	12270.54537
836.489	12325.29794
836.674	12234.04078
836.859	12325.29794
837.044	12325.29794
837.228	12351.65847
837.413	12264.46143
837.598	12300.9641
837.783	12090.02724
837.968	12317.18677
838.152	11789.70316
838.337	12065.68317
838.522	11954.09173
838.707	12025.10723
838.891	11623.22765
839.076	11909.44837
839.261	11889.15462
839.445	11921.62422
839.63	11351.04883
839.815	11507.47099
839.999	11229.12058
840.184	11521.68836
840.368	11383.55691
840.553	11432.31429
840.737	11220.99072
840.922	11609.01354
841.106	11472.94116
841.291	11785.64348
841.475	11661.80657
841.66	11992.64421
841.844	11489.19084
842.029	11706.47284
842.213	11414.03093
842.397	11503.4088
842.582	11172.20805
842.766	11466.84738
842.951	11336.82575
843.135	11633.38032
843.319	11430.28285
843.504	11393.71516
843.688	11448.5655
843.872	11050.22458
844.056	11196.60014
844.241	11253.50917
844.425	11017.68906
844.609	10997.35292
844.793	10716.59786
844.977	10895.65544
845.161	10675.89012
845.346	11064.45799
845.53	10797.99895
845.714	10964.81279
845.898	10504.86388
846.082	10791.89452
846.266	10692.1738
846.45	10578.1716
846.634	10620.92695
846.818	10614.81938
847.002	10608.7117
847.186	10578.1716
847.37	10437.65066
847.554	10612.7835
847.738	10476.35089
847.922	10472.2774
848.106	10390.79675
848.29	10602.6039
848.473	10455.98292
848.657	10437.65066
848.841	10264.46019
849.025	10093.21137
849.209	10164.57688
849.392	10301.14383
849.576	10080.97556
849.76	10252.23134
849.944	9930.025
850.127	10441.72458
850.311	10191.07974
850.495	10358.19865
850.678	10150.30514
850.862	10508.93696
851.046	10142.14956
851.229	10044.26507
851.413	10131.95477
851.596	10203.31105
851.78	10117.68147
851.964	10337.82313
852.147	9795.32603
852.331	10152.34401
852.514	9852.47894
852.698	9976.9505
852.881	9813.69789
853.065	10019.78885
853.248	10054.46289
853.431	10093.21137
853.615	9940.22685
853.798	10011.62965
853.982	9711.61653
854.165	10005.5101
854.348	9721.82637
854.532	9744.28669
854.715	9415.36119
854.898	9695.27998
855.081	9476.68279
855.265	9781.03597
855.448	9658.51915
855.631	9707.53249
855.814	9200.61923
855.997	9399.0063
856.181	9149.46295
856.364	9345.84568
856.547	9392.87295
856.73	9409.22823
856.913	9568.63814
857.096	9509.38172
857.279	9304.94533
857.462	9309.03566
857.645	9135.13728
857.828	9043.02357
858.011	9227.2163
858.194	9106.48343
858.377	9063.49631
858.56	9276.31113
858.743	9153.55585
858.926	9147.41648
859.109	9266.08384
859.292	9439.89158
859.475	9118.76406
859.658	8873.03198
859.841	8793.11398
860.023	9094.20217
860.206	8975.45112
860.389	9151.50941
860.572	8661.90641
860.755	8977.49905
860.937	8875.0808
861.12	8797.213
861.303	8733.66987
861.486	9014.3588
861.668	8799.26249
861.851	8666.00779
862.034	8538.83033
862.216	8649.60183
862.399	8313.01311
862.581	8323.2826
862.764	8045.83282
862.947	8329.44406
863.129	8302.74313
863.312	8078.73478
863.494	8049.94585
863.677	8440.3205
863.859	8278.09318
864.042	8401.31485
864.224	8179.46501
864.406	8197.96126
864.589	7973.84168
864.771	8313.01311
864.954	8049.94585
865.136	8101.35188
865.318	8089.01558
865.501	8167.13327
865.683	7873.01199
865.865	8349.981
866.048	8140.41205
866.23	8023.20972
866.412	7763.89538
866.594	8064.34081
866.777	7955.32564
866.959	8012.92568
867.141	7687.68479
867.323	7611.44529
867.505	7697.9852
867.687	7621.74962
867.869	7751.53886
868.052	7982.07051
868.234	8097.23986
868.416	8128.07804
868.598	7860.6621
868.78	8000.58416
868.962	7807.13726
869.144	7755.65778
869.326	7617.62795
869.508	7813.31392
869.69	7710.345
869.872	7650.59893
870.054	7518.68225
870.236	7564.03848
870.417	7493.9381
870.599	7763.89538
870.781	7512.4965
870.963	7671.20303
871.145	7460.94108
871.327	7800.96041
871.508	7518.68225
871.69	7654.71992
871.872	7679.44408
872.054	7984.12766
872.235	7675.3236
872.417	7895.65153
872.599	7291.74404
872.78	7728.88328
872.962	7430.00134
873.144	7438.25241
873.325	7617.62795
873.507	7860.6621
873.689	7803.01938
873.87	7601.14042
874.052	7555.79267
874.233	7825.66668
874.415	7463.00355
874.596	7778.31036
874.778	7566.09989
874.959	7539.30001
875.141	7405.24603
875.322	7613.5062
875.503	7421.74991
875.685	7800.96041
875.866	7574.34527
876.048	7351.59878
876.229	7283.48676
876.41	7359.85316
876.592	7349.53513
876.773	7345.40777
876.954	7217.41587
877.136	7114.13472
877.317	7002.52843
877.498	7489.81378
877.679	7163.71661
877.86	7485.68937
878.042	7343.34405
878.223	7629.99271
878.404	7322.70569
878.585	7642.3567
878.766	7454.75352
878.947	7646.47786
879.128	7248.38941
879.309	7594.95725
879.49	7258.71282
879.672	7520.74412
879.853	7227.74094
880.034	7475.37796
880.215	7374.29749
880.396	7481.56487
880.576	7403.18295
880.757	7590.83502
880.938	7430.00134
881.119	7761.83601
881.3	7609.38436
881.481	7541.36167
881.662	7594.95725
881.843	7392.8672
882.023	7242.1951
882.204	7318.57775
882.385	6845.34165
882.566	7401.11984
882.747	7171.97901
882.927	7363.98022
883.108	7430.00134
883.289	7590.83502
883.469	7685.62465
883.65	7875.07023
883.831	7531.05316
884.011	7708.28509
884.192	7646.47786
884.373	7838.01869
884.553	7440.31512
884.734	7489.81378
884.914	7140.99317
885.095	7452.69096
885.275	7132.72943
885.456	7425.87567
885.636	7221.54596
885.817	7646.47786
885.997	7238.06545
886.178	7914.17293
886.358	7844.19441
886.538	7757.71721
886.719	7623.81043
886.899	7570.22262
887.08	7632.05343
887.26	7609.38436
887.44	7394.9304
887.621	7568.16126
887.801	7337.15277
887.981	7576.40657
888.161	7559.91562
888.342	7677.38385
888.522	7502.1865
888.702	7370.17065
888.882	7194.69878
889.062	7574.34527
889.242	7601.14042
889.423	7297.93676
889.603	7029.40259
889.783	7359.85316
889.963	7052.1393
890.143	7483.62713
890.323	7064.53999
890.503	7444.44049
890.683	7126.5314
890.863	7223.61098
891.043	7252.51884
891.223	7555.79267
891.403	7122.39926
891.583	7306.19342
891.763	7337.15277
891.943	7934.75031
892.122	7496.00023
892.302	7924.46188
892.482	7761.83601
892.662	7512.4965
892.842	7432.06414
893.022	7465.06601
893.201	7535.17663
893.381	7646.47786
893.561	7442.37782
893.741	7650.59893
893.92	7312.38569
894.1	7471.25324
894.28	7134.7954
894.459	7236.00059
894.639	7043.87172
894.819	7176.11007
894.998	6973.58278
895.178	7432.06414
895.357	7262.84203
895.537	7407.30909
895.716	7050.07244
895.896	7269.03568
896.075	6988.05616
896.255	7262.84203
896.434	7258.71282
896.614	7081.073
896.793	7045.93865
896.973	7124.46534
897.152	6985.9886
897.331	7392.8672
897.511	7343.34405
897.69	7221.54596
897.87	7056.27295
898.049	7384.61422
898.228	7295.87254
898.407	7027.33548
898.587	7019.06683
898.766	7186.43735
898.945	6841.20339
899.124	6845.34165
899.304	6503.62691
899.483	6905.33625
899.662	6948.76871
899.841	6683.88175
900.02	6774.97879
900.199	6954.97253
900.378	6760.48905
900.557	7062.47327
900.737	6861.89379
900.916	6954.97253
901.095	6613.45812
901.274	6853.6179
901.453	6543.00783
901.632	6851.54888
901.811	6543.00783
901.989	6601.02766
902.168	6225.6492
902.347	6758.41899
902.526	6337.72047
902.705	6650.74453
902.884	6402.0269
903.063	6665.24279
903.242	6358.46693
903.42	6563.73128
903.599	6263.01388
903.778	6402.0269
903.957	6441.42945
904.135	6379.21105
904.314	6377.13675
904.493	6557.51449
904.672	6113.50959
904.85	6223.57317
905.029	6063.64777
905.207	6117.66413
905.386	6040.7899
905.565	6065.72561
905.743	5949.32995
905.922	6082.34754
906.1	5716.31674
906.279	6113.50959
906.457	5932.69596
906.636	6283.76875
906.814	5859.90452
906.993	5857.82434
907.171	5678.84057
907.35	5866.14492
907.528	5637.19143
907.707	5678.84057
907.885	5647.6046
908.063	5687.16927
908.242	5603.86531
908.42	5716.31674
908.598	5630.94324
908.777	5726.72543
908.955	5566.36622
909.133	5630.94324
909.311	5493.42947
909.49	5491.34514
909.668	5357.89904
909.846	5633.02599
910.024	5180.51752
910.202	5476.75416
910.38	5261.9253
910.559	5403.78199
910.737	5428.80427
910.915	5389.18411
911.093	5167.99009
911.271	5165.90211
911.449	5157.54993
911.627	5297.39963
911.805	5011.32676
911.983	5174.25391
912.161	4952.80577
912.339	5264.01222
912.517	5241.0549
912.695	5397.5259
912.872	4994.60832
913.05	5184.69314
913.228	4942.35369
913.406	5046.84854
913.584	4722.72805
913.762	4731.09934
913.939	4701.79827
914.117	4741.56293
914.295	4705.98441
914.473	4850.35069
914.65	4825.25128
914.828	5002.96772
915.006	4618.05663
915.184	5094.89677
915.361	4613.8686
915.539	4965.3475
915.716	4569.88897
915.894	4915.1756
916.072	4787.59602
916.249	4854.53361
916.427	4471.42288
916.604	4979.97847
916.782	4328.87546
916.959	4601.304
917.137	4377.1013
917.314	4680.86623
917.492	4437.89139
917.669	4481.90031
917.847	4358.23169
918.024	4580.3612
918.201	4381.29431
918.379	4467.23175
918.556	3988.87886
918.733	4412.7391
918.911	4095.9742
919.088	4433.69956
919.265	4144.25442
919.442	4328.87546
919.62	4009.88217
919.797	4286.93066
919.974	4087.57651
920.151	4182.03121
920.328	3831.28951
920.506	3982.57747
920.683	3993.07969
920.86	3969.97414
921.037	3625.20565
921.214	3719.85903
921.391	3663.07163
921.568	4020.38305
921.745	3610.47834
921.922	3801.86039
922.099	3606.27037
922.276	3925.85672
922.453	3682.00231
922.63	3873.32437
922.807	3719.85903
922.984	3894.33882
923.161	3507.36162
923.338	3690.41545
923.514	3423.15217
923.691	3530.51413
923.868	3223.04207
924.045	3427.36332
924.222	3252.54167
924.399	3366.29466
924.575	2851.92436
924.752	3402.09533
924.929	3324.16976
925.105	3515.78097
925.282	3294.67822
925.459	3589.43773
925.635	3288.35817
925.812	3454.73409
925.989	3210.39839
926.165	3412.62397
926.342	3204.07633
926.518	3151.38671
926.695	3056.52006
926.871	3071.2792
927.048	2771.7365
927.224	3037.54291
927.401	2807.61248
927.577	3096.57878
927.754	2820.27364
927.93	3067.06238
928.107	2769.62603
928.283	2851.92436
928.459	2598.63427
928.636	2716.85983
928.812	2440.23747
928.988	2670.4188
929.165	2497.2677
929.341	2672.52989
929.517	2440.23747
929.693	2478.25852
929.87	2324.04091
930.046	2539.50704
930.222	2214.1553
930.398	2522.61185
930.574	2260.64839
930.751	2526.83572
930.927	2370.52324
931.103	2442.34984
931.279	2271.21439
931.455	2393.76258
931.631	2264.87482
931.807	2385.31205
931.983	2116.9292
932.159	2448.6869
932.335	1926.65919
932.511	2157.0899
932.687	2080.9936
932.863	2129.61184
933.039	1704.62072
933.215	2089.44923
933.391	1842.079
933.566	1987.97423
933.742	1774.40932
933.918	1899.17155
934.094	1639.05861
934.27	1744.80251
934.445	1478.31772
934.621	1710.9653
934.797	1482.54782
934.973	1727.88401
935.148	1548.11404
935.324	1592.52924
935.5	1397.94582
935.675	1537.5389
935.851	1298.54007
936.027	1469.85752
936.202	1199.13887
936.378	1228.74708
936.553	1127.23619
936.729	1192.79434
936.904	1046.88057
937.08	1150.49832
937.255	909.45008
937.431	1057.45324
937.606	729.78425
937.782	799.52889
937.957	738.23756
938.133	860.82823
938.308	704.42538
938.483	753.03124
938.659	588.21852
938.834	710.76495
939.009	626.24581
939.185	702.31221
939.36	533.29774
939.535	607.23165
939.71	543.85871
939.886	613.56959
940.061	434.04231
940.236	548.0832
940.411	415.03981
940.586	421.37383
940.761	488.94552
940.937	459.38097
941.112	436.15378
941.287	459.38097
941.462	324.26855
941.637	385.48296
941.812	313.71583
941.987	406.59467
942.162	294.72206
942.337	290.50142
942.512	326.37915
942.687	231.42039
942.862	265.17916
943.037	358.04023
943.212	182.90097
943.386	345.37533
943.561	296.83241
943.736	372.81673
943.911	330.6004
944.086	358.04023
944.26	315.82634
944.435	427.708
944.61	265.17916
944.785	421.37383
944.959	320.04741
945.134	258.84902
945.309	246.18925
945.483	341.15383
945.658	185.01029
945.833	273.61962
946.007	313.71583
946.182	267.28925
946.357	222.98148
946.531	252.51905
946.706	197.66663
946.88	301.05315
947.055	347.4861
947.229	324.26855
947.404	237.74979
947.578	248.29916
947.752	244.07936
947.927	241.96948
948.101	282.06037
948.276	254.62902
948.45	235.63997
948.624	235.63997
948.799	254.62902
948.973	330.6004
949.147	235.63997
949.321	349.59689
949.496	311.60534
949.67	271.50948
949.844	271.50948
950.018	250.4091
950.193	273.61962
950.367	349.59689
950.541	193.44776
950.715	313.71583
950.889	315.82634
951.063	328.48976
951.237	288.39113
951.411	303.16355
951.585	349.59689
951.759	307.38441
951.933	260.95905
952.107	271.50948
952.281	322.15797
952.455	298.94277
952.629	271.50948
952.803	317.93686
952.977	203.99507
953.151	311.60534
953.325	277.83996
953.499	358.04023
953.672	311.60534
953.846	379.14977
954.02	320.04741
954.194	328.48976
954.368	374.92772
954.541	313.71583
954.715	320.04741
954.889	328.48976
955.062	374.92772
955.236	396.03861
955.41	322.15797
955.583	387.59405
955.757	305.27397
955.93	324.26855
956.104	269.39935
956.278	353.81853
956.451	269.39935
956.625	328.48976
956.798	366.48384
956.972	360.15111
957.145	305.27397
957.319	448.82293
957.492	362.262
957.665	339.04311
957.839	298.94277
958.012	391.8163
958.185	269.39935
958.359	296.83241
958.532	334.82172
958.705	315.82634
958.879	322.15797
959.052	349.59689
959.225	277.83996
959.398	330.6004
959.572	294.72206
959.745	328.48976
959.918	248.29916
960.091	256.73901
960.264	265.17916
960.438	296.83241
960.611	244.07936
960.784	296.83241
960.957	246.18925
961.13	387.59405
961.303	267.28925
961.476	330.6004
961.649	294.72206
961.822	256.73901
961.995	275.72978
962.168	343.26457
962.341	193.44776
962.514	267.28925
962.686	218.76214
962.859	294.72206
963.032	303.16355
963.205	277.83996
963.378	315.82634
963.551	282.06037
963.723	286.28086
963.896	343.26457
964.069	180.79167
964.242	218.76214
964.414	239.85962
964.587	313.71583
964.76	265.17916
964.932	265.17916
965.105	309.49486
965.278	320.04741
965.45	201.88557
965.623	166.02716
965.795	212.43327
965.968	237.74979
966.14	201.88557
966.313	275.72978
966.485	222.98148
966.658	239.85962
966.83	254.62902
967.003	229.31064
967.175	277.83996
967.348	303.16355
967.52	212.43327
967.692	252.51905
967.865	210.32369
968.037	303.16355
968.209	170.24549
968.382	258.84902
968.554	140.71894
968.726	132.28355
968.898	225.09118
969.071	241.96948
969.243	284.17061
969.415	185.01029
969.587	244.07936
969.759	203.99507
969.932	246.18925
970.104	235.63997
970.276	244.07936
970.448	252.51905
970.62	174.4639
970.792	151.26366
970.964	256.73901
971.136	225.09118
971.308	210.32369
971.48	149.15468
971.652	206.10459
971.824	265.17916
971.996	153.37267
972.168	193.44776
972.339	111.19658
972.511	176.57313
972.683	111.19658
972.855	176.57313
973.027	163.91802
973.199	197.66663
973.37	121.73979
973.542	248.29916
973.714	180.79167
973.886	239.85962
974.057	172.35468
974.229	218.76214
974.401	136.50121
974.572	197.66663
974.744	123.8485
974.915	206.10459
975.087	119.63111
975.259	149.15468
975.43	166.02716
975.602	142.82785
975.773	178.68239
975.945	159.69982
976.116	111.19658
976.288	147.04571
976.459	157.59075
976.63	172.35468
976.802	121.73979
976.973	121.73979
977.145	155.4817
977.316	220.8718
977.487	159.69982
977.659	121.73979
977.83	142.82785
978.001	185.01029
978.172	119.63111
978.344	128.06598
978.515	132.28355
978.686	178.68239
978.857	220.8718
979.028	111.19658
979.2	111.19658
979.371	119.63111
979.542	119.63111
979.713	58.48881
979.884	102.7624
980.055	144.93677
980.226	79.57023
980.397	123.8485
980.568	159.69982
980.739	92.22017
980.91	73.24557
981.081	119.63111
981.252	185.01029
981.423	157.59075
981.594	195.55718
981.765	100.65391
981.936	52.16483
982.106	180.79167
982.277	88.00344
982.448	77.46199
982.619	136.50121
982.79	83.78679
982.96	111.19658
983.131	138.61006
983.302	125.95723
983.472	132.28355
983.643	134.39237
983.814	119.63111
983.984	41.62532
984.155	106.97945
984.326	109.088
984.496	170.24549
984.667	138.61006
984.837	33.19413
985.008	178.68239
985.178	64.813
985.349	157.59075
985.519	69.02924
985.69	69.02924
985.86	92.22017
986.031	149.15468
986.201	75.35377
986.371	134.39237
986.542	58.48881
986.712	155.4817
986.882	73.24557
987.053	130.17476
987.223	128.06598
987.393	62.70491
987.563	62.70491
987.734	134.39237
987.904	92.22017
988.074	52.16483
988.244	136.50121
988.414	58.48881
988.585	60.59685
988.755	77.46199
988.925	100.65391
989.095	62.70491
989.265	52.16483
989.435	24.76332
989.605	60.59685
989.775	5.79537
989.945	92.22017
990.115	136.50121
990.285	20.54805
990.455	83.78679
990.625	71.13739
990.795	85.8951
990.965	71.13739
991.134	88.00344
991.304	85.8951
991.474	117.52244
991.644	83.78679
991.814	41.62532
991.984	79.57023
992.153	77.46199
992.323	24.76332
992.493	64.813
992.662	69.02924
992.832	66.92111
993.002	50.05688
993.171	58.48881
993.341	102.7624
993.511	106.97945
993.68	77.46199
993.85	136.50121
994.019	41.62532
994.189	157.59075
994.358	83.78679
994.528	28.97868
994.697	-27.92059
994.867	20.54805
995.036	33.19413
995.206	77.46199
995.375	35.30189
995.544	43.73317
995.714	54.2728
995.883	33.19413
996.052	88.00344
996.222	125.95723
996.391	102.7624
996.56	79.57023
996.73	-2.6342
996.899	71.13739
997.068	142.82785
997.237	-8.95613
997.406	-2.6342
997.576	31.08639
997.745	41.62532
997.914	50.05688
998.083	58.48881
998.252	77.46199
998.421	-8.95613
998.59	7.90283
998.759	1.58054
998.928	31.08639
999.097	24.76332
999.266	24.76332
999.435	64.813
999.604	90.11179
999.773	26.87099
999.942	24.76332
1000.111	20.54805
1000.28	31.08639
1000.448	-0.52684
1000.617	69.02924
1000.786	115.4138
1000.955	7.90283
1001.124	-8.95613
1001.292	136.50121
1001.461	134.39237
1001.63	26.87099
1001.798	-2.6342
1001.967	-0.52684
1002.136	71.13739
1002.304	62.70491
1002.473	33.19413
1002.642	1.58054
1002.81	22.65567
1002.979	50.05688
1003.147	71.13739
1003.316	-46.88306
1003.484	102.7624
1003.653	-8.95613
1003.821	60.59685
1003.99	94.32857
1004.158	18.44046
1004.327	18.44046
1004.495	47.94895
1004.663	50.05688
1004.832	-13.17063
1005	41.62532
1005.168	56.38079
1005.337	90.11179
1005.505	-17.38502
1005.673	66.92111
1005.842	35.30189
1006.01	-4.74153
1006.178	60.59685
1006.346	98.54544
1006.514	24.76332
1006.683	50.05688
1006.851	7.90283
1007.019	-13.17063
1007.187	100.65391
1007.355	24.76332
1007.523	37.40968
1007.691	37.40968
1007.859	43.73317
1008.027	73.24557
1008.195	111.19658
1008.363	47.94895
1008.531	7.90283
1008.699	12.11781
1008.867	20.54805
1009.035	54.2728
1009.203	7.90283
1009.37	50.05688
1009.538	50.05688
1009.706	35.30189
1009.874	56.38079
1010.042	16.33288
1010.209	-15.27784
1010.377	31.08639
1010.545	109.088
1010.713	28.97868
1010.88	-4.74153
1011.048	66.92111
1011.216	18.44046
1011.383	24.76332
1011.551	10.01031
1011.718	64.813
1011.886	66.92111
1012.054	-0.52684
1012.221	54.2728
1012.389	28.97868
1012.556	37.40968
1012.724	45.84105
1012.891	41.62532
1013.058	35.30189
1013.226	-11.06339
1013.393	-6.84884
1013.561	1.58054
1013.728	20.54805
1013.895	66.92111
1014.063	58.48881
1014.23	58.48881
1014.397	-74.26969
1014.565	81.6785
1014.732	33.19413
1014.899	-6.84884
1015.066	31.08639
1015.233	79.57023
1015.401	7.90283
1015.568	85.8951
1015.735	79.57023
1015.902	60.59685
1016.069	41.62532
1016.236	45.84105
1016.403	35.30189
1016.57	12.11781
1016.737	77.46199
1016.904	39.51749
1017.071	24.76332
1017.238	111.19658
1017.405	115.4138
1017.572	62.70491
1017.739	18.44046
1017.906	-17.38502
1018.073	-2.6342
1018.24	66.92111
1018.407	52.16483
1018.573	104.87091
1018.74	-8.95613
1018.907	-8.95613
1019.074	37.40968
1019.241	14.22533
1019.407	12.11781
1019.574	33.19413
1019.741	-13.17063
1019.907	-30.02763
1020.074	28.97868
1020.241	88.00344
1020.407	62.70491
1020.574	75.35377
1020.74	5.79537
1020.907	43.73317
1021.073	12.11781
1021.24	147.04571
1021.406	39.51749
1021.573	3.68794
1021.739	3.68794
1021.906	20.54805
1022.072	24.76332
1022.239	14.22533
1022.405	-34.24164
1022.571	54.2728
1022.738	16.33288
1022.904	58.48881
1023.07	52.16483
1023.237	35.30189
1023.403	10.01031
1023.569	-15.27784
1023.735	14.22533
1023.902	7.90283
1024.068	69.02924
1024.234	83.78679
1024.4	41.62532
1024.566	-40.56246
1024.732	-51.09666
1024.898	56.38079
1025.065	7.90283
1025.231	50.05688
1025.397	28.97868
1025.563	24.76332
1025.729	58.48881
1025.895	-8.95613
1026.061	-0.52684
1026.227	52.16483
1026.392	50.05688
1026.558	56.38079
1026.724	85.8951
1026.89	-17.38502
1027.056	33.19413
1027.222	-0.52684
1027.388	33.19413
1027.553	14.22533
1027.719	77.46199
1027.885	-38.45555
1028.051	-42.66935
1028.216	-13.17063
1028.382	-21.59933
1028.548	-34.24164
1028.713	35.30189
1028.879	-0.52684
1029.045	45.84105
1029.21	37.40968
1029.376	5.79537
1029.541	-23.70644
1029.707	-13.17063
1029.873	90.11179
1030.038	39.51749
1030.204	69.02924
1030.369	5.79537
1030.534	18.44046
1030.7	20.54805
1030.865	60.59685
1031.031	10.01031
1031.196	41.62532
1031.361	-51.09666
1031.527	12.11781
1031.692	75.35377
1031.857	-17.38502
1032.023	39.51749
1032.188	12.11781
1032.353	56.38079
1032.518	12.11781
1032.684	-34.24164
1032.849	33.19413
1033.014	3.68794
1033.179	58.48881
1033.344	39.51749
1033.509	60.59685
1033.674	66.92111
1033.839	-38.45555
1034.004	64.813
1034.17	83.78679
1034.335	-55.31017
1034.5	81.6785
1034.664	24.76332
1034.829	24.76332
1034.994	-4.74153
1035.159	28.97868
1035.324	75.35377
1035.489	5.79537
1035.654	37.40968
1035.819	20.54805
1035.984	31.08639
1036.148	-17.38502
1036.313	33.19413
1036.478	10.01031
1036.643	22.65567
1036.807	35.30189
1036.972	1.58054
1037.137	39.51749
1037.301	1.58054
1037.466	14.22533
1037.631	16.33288
1037.795	-0.52684
1037.96	7.90283
1038.124	-2.6342
1038.289	39.51749
1038.454	62.70491
1038.618	50.05688
1038.783	33.19413
1038.947	18.44046
1039.111	-6.84884
1039.276	69.02924
1039.44	12.11781
1039.605	69.02924
1039.769	20.54805
1039.933	41.62532
1040.098	-17.38502
1040.262	28.97868
1040.426	24.76332
1040.591	26.87099
1040.755	10.01031
1040.919	37.40968
1041.083	31.08639
1041.248	33.19413
1041.412	16.33288
1041.576	66.92111
1041.74	-80.58907
1041.904	-21.59933
1042.068	37.40968
1042.232	54.2728
1042.397	33.19413
1042.561	69.02924
1042.725	39.51749
1042.889	14.22533
1043.053	-17.38502
1043.217	-8.95613
1043.381	28.97868
1043.544	7.90283
1043.708	-59.52357
1043.872	33.19413
1044.036	50.05688
1044.2	-17.38502
1044.364	50.05688
1044.528	18.44046
1044.691	22.65567
1044.855	45.84105
1045.019	26.87099
1045.183	22.65567
1045.346	83.78679
1045.51	-4.74153
1045.674	54.2728
1045.837	-21.59933
1046.001	71.13739
1046.165	43.73317
1046.328	7.90283
1046.492	52.16483
1046.655	-23.70644
1046.819	-55.31017
1046.983	28.97868
1047.146	58.48881
1047.31	-0.52684
1047.473	33.19413
1047.636	69.02924
1047.8	26.87099
1047.963	64.813
1048.127	-30.02763
1048.29	83.78679
