Data from Scatter_Coeff_Baseline_USB4F045381__20__0020.txt Node

Date: Thu Feb 13 19:19:53 EST 2025
User: mmckonesweet
Spectrometer: USB4F04538
Trigger mode: 4
Integration Time (sec): 2.400000E-3
Scans to average: 1
Electric dark correction enabled: true
Nonlinearity correction enabled: true
Boxcar width: 0
XAxis mode: Wavelengths
Number of Pixels in Spectrum: 3648
>>>>>Begin Spectral Data<<<<<
345.52	75.35377
345.736	75.35377
345.952	75.35377
346.168	12.11781
346.384	-59.52357
346.6	-103.75813
346.816	-8.95613
347.032	-59.52357
347.248	33.19413
347.464	33.19413
347.68	37.40968
347.896	37.40968
348.112	-25.81353
348.328	16.33288
348.544	22.65567
348.76	85.8951
348.975	-67.95008
349.191	-0.52684
349.407	5.79537
349.623	35.30189
349.839	64.813
350.055	-13.17063
350.27	-42.66935
350.486	-51.09666
350.702	-42.66935
350.918	22.65567
351.133	-82.69548
351.349	-80.58907
351.565	-17.38502
351.781	7.90283
351.996	7.90283
352.212	-8.95613
352.428	43.73317
352.644	-13.17063
352.859	-38.45555
353.075	16.33288
353.291	-8.95613
353.506	-21.59933
353.722	-17.38502
353.938	5.79537
354.153	71.13739
354.369	1.58054
354.584	69.02924
354.8	-25.81353
355.016	-80.58907
355.231	-0.52684
355.447	-51.09666
355.662	1.58054
355.878	24.76332
356.093	-101.65198
356.309	18.44046
356.524	-25.81353
356.74	50.05688
356.955	-59.52357
357.171	7.90283
357.386	7.90283
357.602	-4.74153
357.817	92.22017
358.033	-40.56246
358.248	33.19413
358.464	66.92111
358.679	-8.95613
358.895	-76.37618
359.11	-8.95613
359.325	-2.6342
359.541	-38.45555
359.756	26.87099
359.972	35.30189
360.187	20.54805
360.402	37.40968
360.618	24.76332
360.833	12.11781
361.048	12.11781
361.264	37.40968
361.479	28.97868
361.694	5.79537
361.909	66.92111
362.125	-8.95613
362.34	26.87099
362.555	-8.95613
362.77	-57.41689
362.986	-19.49219
363.201	22.65567
363.416	-124.81816
363.631	22.65567
363.847	-8.95613
364.062	20.54805
364.277	92.22017
364.492	-23.70644
364.707	-13.17063
364.922	62.70491
365.138	26.87099
365.353	3.68794
365.568	41.62532
365.783	-57.41689
365.998	-51.09666
366.213	41.62532
366.428	-38.45555
366.643	47.94895
366.858	-57.41689
367.073	-55.31017
367.288	12.11781
367.503	45.84105
367.718	-0.52684
367.933	75.35377
368.148	43.73317
368.363	-8.95613
368.578	-84.80186
368.793	39.51749
369.008	-0.52684
369.223	22.65567
369.438	-13.17063
369.653	16.33288
369.868	-6.84884
370.083	-4.74153
370.298	-32.13465
370.513	-4.74153
370.728	-13.17063
370.943	-6.84884
371.157	-4.74153
371.372	-8.95613
371.587	-30.02763
371.802	-74.26969
372.017	-51.09666
372.232	-4.74153
372.446	-0.52684
372.661	37.40968
372.876	-11.06339
373.091	-19.49219
373.306	-32.13465
373.52	-32.13465
373.735	10.01031
373.95	3.68794
374.165	-67.95008
374.379	43.73317
374.594	7.90283
374.809	39.51749
375.023	71.13739
375.238	10.01031
375.453	-25.81353
375.667	24.76332
375.882	-34.24164
376.097	-8.95613
376.311	94.32857
376.526	-55.31017
376.741	-6.84884
376.955	33.19413
377.17	-13.17063
377.384	-25.81353
377.599	16.33288
377.813	-23.70644
378.028	-34.24164
378.242	100.65391
378.457	-17.38502
378.672	41.62532
378.886	43.73317
379.101	-34.24164
379.315	24.76332
379.53	-25.81353
379.744	-17.38502
379.958	-6.84884
380.173	18.44046
380.387	60.59685
380.602	-67.95008
380.816	-34.24164
381.031	-36.3486
381.245	7.90283
381.459	5.79537
381.674	-40.56246
381.888	-17.38502
382.103	-30.02763
382.317	24.76332
382.531	37.40968
382.746	-4.74153
382.96	60.59685
383.174	-51.09666
383.388	35.30189
383.603	-0.52684
383.817	14.22533
384.031	-15.27784
384.246	5.79537
384.46	24.76332
384.674	-8.95613
384.888	-57.41689
385.103	33.19413
385.317	-53.20343
385.531	35.30189
385.745	-21.59933
385.959	37.40968
386.174	-4.74153
386.388	3.68794
386.602	-19.49219
386.816	62.70491
387.03	-118.50043
387.244	10.01031
387.458	-6.84884
387.672	-55.31017
387.887	85.8951
388.101	-59.52357
388.315	16.33288
388.529	-38.45555
388.743	-30.02763
388.957	1.58054
389.171	12.11781
389.385	54.2728
389.599	-23.70644
389.813	-25.81353
390.027	-42.66935
390.241	-42.66935
390.455	20.54805
390.669	43.73317
390.883	-13.17063
391.097	-25.81353
391.311	-13.17063
391.525	16.33288
391.738	-13.17063
391.952	10.01031
392.166	-8.95613
392.38	7.90283
392.594	24.76332
392.808	-19.49219
393.022	20.54805
393.236	16.33288
393.449	16.33288
393.663	-44.77622
393.877	14.22533
394.091	41.62532
394.305	-0.52684
394.518	-15.27784
394.732	-32.13465
394.946	1.58054
395.16	26.87099
395.373	-76.37618
395.587	-19.49219
395.801	-4.74153
396.015	-55.31017
396.228	7.90283
396.442	-0.52684
396.656	50.05688
396.869	58.48881
397.083	3.68794
397.297	1.58054
397.51	16.33288
397.724	12.11781
397.938	26.87099
398.151	-57.41689
398.365	-0.52684
398.578	-34.24164
398.792	-21.59933
399.005	-65.84349
399.219	-2.6342
399.433	-40.56246
399.646	-23.70644
399.86	24.76332
400.073	3.68794
400.287	18.44046
400.5	-23.70644
400.714	-21.59933
400.927	-59.52357
401.141	12.11781
401.354	-23.70644
401.567	7.90283
401.781	-95.33338
401.994	14.22533
402.208	45.84105
402.421	24.76332
402.635	-6.84884
402.848	-55.31017
403.061	1.58054
403.275	94.32857
403.488	7.90283
403.701	7.90283
403.915	-15.27784
404.128	56.38079
404.341	-17.38502
404.555	3.68794
404.768	75.35377
404.981	-51.09666
405.195	28.97868
405.408	-63.73688
405.621	-25.81353
405.834	-8.95613
406.048	123.8485
406.261	-25.81353
406.474	16.33288
406.687	-46.88306
406.9	-17.38502
407.114	75.35377
407.327	-51.09666
407.54	12.11781
407.753	24.76332
407.966	5.79537
408.179	75.35377
408.392	22.65567
408.605	14.22533
408.819	58.48881
409.032	-55.31017
409.245	-0.52684
409.458	-6.84884
409.671	-34.24164
409.884	-42.66935
410.097	-6.84884
410.31	7.90283
410.523	41.62532
410.736	1.58054
410.949	24.76332
411.162	24.76332
411.375	-25.81353
411.588	66.92111
411.801	-17.38502
412.014	-17.38502
412.227	26.87099
412.44	16.33288
412.653	47.94895
412.865	1.58054
413.078	-6.84884
413.291	-74.26969
413.504	-25.81353
413.717	-17.38502
413.93	75.35377
414.143	28.97868
414.356	-57.41689
414.568	3.68794
414.781	-0.52684
414.994	-55.31017
415.207	28.97868
415.42	-42.66935
415.632	88.00344
415.845	-48.98987
416.058	-65.84349
416.271	98.54544
416.483	-13.17063
416.696	7.90283
416.909	-0.52684
417.121	-6.84884
417.334	1.58054
417.547	12.11781
417.759	-25.81353
417.972	3.68794
418.185	-19.49219
418.397	16.33288
418.61	3.68794
418.823	-25.81353
419.035	-2.6342
419.248	-6.84884
419.46	28.97868
419.673	58.48881
419.885	50.05688
420.098	18.44046
420.311	-48.98987
420.523	-72.16318
420.736	-48.98987
420.948	45.84105
421.161	16.33288
421.373	-19.49219
421.586	-59.52357
421.798	56.38079
422.01	-17.38502
422.223	-57.41689
422.435	16.33288
422.648	45.84105
422.86	-32.13465
423.073	37.40968
423.285	41.62532
423.497	88.00344
423.71	-46.88306
423.922	-21.59933
424.134	-30.02763
424.347	-38.45555
424.559	-6.84884
424.771	47.94895
424.984	-21.59933
425.196	26.87099
425.408	-63.73688
425.621	22.65567
425.833	-15.27784
426.045	56.38079
426.257	43.73317
426.47	-15.27784
426.682	41.62532
426.894	-34.24164
427.106	-67.95008
427.318	-32.13465
427.531	24.76332
427.743	26.87099
427.955	-51.09666
428.167	33.19413
428.379	-8.95613
428.591	43.73317
428.804	-51.09666
429.016	-40.56246
429.228	98.54544
429.44	-17.38502
429.652	-13.17063
429.864	-0.52684
430.076	-63.73688
430.288	-17.38502
430.5	-8.95613
430.712	-89.01455
430.924	-8.95613
431.136	-13.17063
431.348	-78.48264
431.56	41.62532
431.772	-2.6342
431.984	-15.27784
432.196	-25.81353
432.408	-17.38502
432.62	-124.81816
432.832	-17.38502
433.044	-21.59933
433.256	-65.84349
433.468	-36.3486
433.679	7.90283
433.891	-42.66935
434.103	-6.84884
434.315	45.84105
434.527	50.05688
434.739	12.11781
434.95	45.84105
435.162	-17.38502
435.374	50.05688
435.586	16.33288
435.798	16.33288
436.009	-40.56246
436.221	-15.27784
436.433	-8.95613
436.645	10.01031
436.856	3.68794
437.068	1.58054
437.28	7.90283
437.491	-76.37618
437.703	18.44046
437.915	75.35377
438.126	-34.24164
438.338	50.05688
438.55	-17.38502
438.761	58.48881
438.973	-15.27784
439.184	-30.02763
439.396	-30.02763
439.608	-17.38502
439.819	50.05688
440.031	33.19413
440.242	-25.81353
440.454	26.87099
440.665	5.79537
440.877	35.30189
441.088	-32.13465
441.3	-8.95613
441.511	45.84105
441.723	-4.74153
441.934	-0.52684
442.146	-15.27784
442.357	-2.6342
442.569	28.97868
442.78	20.54805
442.991	-17.38502
443.203	24.76332
443.414	-23.70644
443.626	69.02924
443.837	-80.58907
444.048	-23.70644
444.26	-11.06339
444.471	16.33288
444.682	-74.26969
444.894	-0.52684
445.105	24.76332
445.316	-4.74153
445.528	7.90283
445.739	10.01031
445.95	-0.52684
446.161	-6.84884
446.373	-21.59933
446.584	10.01031
446.795	-19.49219
447.006	-57.41689
447.217	69.02924
447.429	-4.74153
447.64	-25.81353
447.851	-30.02763
448.062	-2.6342
448.273	-59.52357
448.484	-55.31017
448.695	18.44046
448.907	43.73317
449.118	12.11781
449.329	16.33288
449.54	12.11781
449.751	-42.66935
449.962	33.19413
450.173	20.54805
450.384	1.58054
450.595	-46.88306
450.806	-38.45555
451.017	16.33288
451.228	-8.95613
451.439	24.76332
451.65	1.58054
451.861	41.62532
452.072	-13.17063
452.283	16.33288
452.494	-80.58907
452.705	-95.33338
452.915	-2.6342
453.126	-61.63024
453.337	-40.56246
453.548	-40.56246
453.759	-17.38502
453.97	-23.70644
454.181	-13.17063
454.391	71.13739
454.602	31.08639
454.813	-51.09666
455.024	-15.27784
455.235	-8.95613
455.445	24.76332
455.656	35.30189
455.867	-21.59933
456.078	-0.52684
456.288	-63.73688
456.499	69.02924
456.71	5.79537
456.921	-36.3486
457.131	58.48881
457.342	-8.95613
457.553	-80.58907
457.763	-25.81353
457.974	-4.74153
458.184	-13.17063
458.395	-42.66935
458.606	-42.66935
458.816	-0.52684
459.027	7.90283
459.237	-15.27784
459.448	41.62532
459.659	-40.56246
459.869	20.54805
460.08	35.30189
460.29	-2.6342
460.501	3.68794
460.711	24.76332
460.922	-4.74153
461.132	22.65567
461.343	-0.52684
461.553	-15.27784
461.764	-0.52684
461.974	-8.95613
462.184	12.11781
462.395	-17.38502
462.605	54.2728
462.816	54.2728
463.026	1.58054
463.236	79.57023
463.447	43.73317
463.657	-4.74153
463.867	10.01031
464.078	-2.6342
464.288	1.58054
464.498	-34.24164
464.709	3.68794
464.919	58.48881
465.129	-17.38502
465.339	43.73317
465.55	45.84105
465.76	-2.6342
465.97	-17.38502
466.18	-74.26969
466.391	41.62532
466.601	-70.05664
466.811	45.84105
467.021	18.44046
467.231	-25.81353
467.441	-51.09666
467.651	41.62532
467.862	35.30189
468.072	-30.02763
468.282	20.54805
468.492	-6.84884
468.702	7.90283
468.912	-48.98987
469.122	22.65567
469.332	1.58054
469.542	3.68794
469.752	100.65391
469.962	-8.95613
470.172	-0.52684
470.382	22.65567
470.592	7.90283
470.802	24.76332
471.012	-40.56246
471.222	18.44046
471.432	-4.74153
471.642	-17.38502
471.852	12.11781
472.062	18.44046
472.272	-34.24164
472.482	22.65567
472.691	37.40968
472.901	79.57023
473.111	-0.52684
473.321	54.2728
473.531	60.59685
473.741	31.08639
473.95	12.11781
474.16	58.48881
474.37	-6.84884
474.58	28.97868
474.79	20.54805
474.999	-25.81353
475.209	28.97868
475.419	-15.27784
475.628	-13.17063
475.838	-6.84884
476.048	-70.05664
476.258	35.30189
476.467	-42.66935
476.677	-57.41689
476.886	37.40968
477.096	-32.13465
477.306	50.05688
477.515	66.92111
477.725	10.01031
477.935	54.2728
478.144	-25.81353
478.354	-8.95613
478.563	-34.24164
478.773	-13.17063
478.982	-67.95008
479.192	-46.88306
479.401	28.97868
479.611	-44.77622
479.82	96.437
480.03	-34.24164
480.239	43.73317
480.449	-44.77622
480.658	12.11781
480.868	43.73317
481.077	14.22533
481.287	-107.97035
481.496	-8.95613
481.705	1.58054
481.915	83.78679
482.124	-17.38502
482.333	16.33288
482.543	-48.98987
482.752	43.73317
482.961	24.76332
483.171	-21.59933
483.38	-34.24164
483.589	90.11179
483.799	18.44046
484.008	-76.37618
484.217	-63.73688
484.426	62.70491
484.636	-51.09666
484.845	-55.31017
485.054	-8.95613
485.263	50.05688
485.472	-2.6342
485.682	-32.13465
485.891	-23.70644
486.1	-30.02763
486.309	-19.49219
486.518	-44.77622
486.727	24.76332
486.936	10.01031
487.146	5.79537
487.355	-0.52684
487.564	16.33288
487.773	-34.24164
487.982	7.90283
488.191	-4.74153
488.4	-59.52357
488.609	3.68794
488.818	33.19413
489.027	41.62532
489.236	-65.84349
489.445	-38.45555
489.654	83.78679
489.863	18.44046
490.072	-4.74153
490.281	-4.74153
490.49	33.19413
490.698	45.84105
490.907	35.30189
491.116	-15.27784
491.325	-42.66935
491.534	45.84105
491.743	33.19413
491.952	-67.95008
492.16	24.76332
492.369	-23.70644
492.578	-0.52684
492.787	14.22533
492.996	-23.70644
493.204	-93.22713
493.413	58.48881
493.622	-15.27784
493.831	39.51749
494.039	-13.17063
494.248	16.33288
494.457	-44.77622
494.665	-27.92059
494.874	10.01031
495.083	-17.38502
495.291	10.01031
495.5	-46.88306
495.709	24.76332
495.917	33.19413
496.126	-15.27784
496.335	-8.95613
496.543	33.19413
496.752	-27.92059
496.96	66.92111
497.169	-65.84349
497.377	79.57023
497.586	12.11781
497.794	-48.98987
498.003	-8.95613
498.211	-0.52684
498.42	85.8951
498.628	35.30189
498.837	-74.26969
499.045	-27.92059
499.254	24.76332
499.462	16.33288
499.671	-8.95613
499.879	39.51749
500.087	3.68794
500.296	-0.52684
500.504	71.13739
500.713	-70.05664
500.921	37.40968
501.129	12.11781
501.338	-48.98987
501.546	-8.95613
501.754	-48.98987
501.962	28.97868
502.171	7.90283
502.379	16.33288
502.587	-11.06339
502.795	-30.02763
503.004	-11.06339
503.212	26.87099
503.42	-13.17063
503.628	-19.49219
503.837	-40.56246
504.045	-51.09666
504.253	-42.66935
504.461	16.33288
504.669	37.40968
504.877	-17.38502
505.085	62.70491
505.294	16.33288
505.502	1.58054
505.71	16.33288
505.918	-48.98987
506.126	-25.81353
506.334	-59.52357
506.542	-27.92059
506.75	54.2728
506.958	24.76332
507.166	37.40968
507.374	52.16483
507.582	-34.24164
507.79	45.84105
507.998	28.97868
508.206	18.44046
508.414	37.40968
508.622	-19.49219
508.83	-57.41689
509.037	75.35377
509.245	-38.45555
509.453	7.90283
509.661	-15.27784
509.869	-8.95613
510.077	-0.52684
510.285	1.58054
510.492	69.02924
510.7	-42.66935
510.908	-13.17063
511.116	18.44046
511.324	12.11781
511.531	-34.24164
511.739	10.01031
511.947	-0.52684
512.155	20.54805
512.362	22.65567
512.57	3.68794
512.778	-30.02763
512.985	-34.24164
513.193	-65.84349
513.401	12.11781
513.608	26.87099
513.816	-8.95613
514.024	-36.3486
514.231	31.08639
514.439	16.33288
514.646	-0.52684
514.854	-32.13465
515.061	77.46199
515.269	24.76332
515.477	-0.52684
515.684	-6.84884
515.892	-95.33338
516.099	24.76332
516.307	-0.52684
516.514	-23.70644
516.722	26.87099
516.929	47.94895
517.136	-25.81353
517.344	16.33288
517.551	26.87099
517.759	41.62532
517.966	-8.95613
518.173	35.30189
518.381	-2.6342
518.588	-38.45555
518.796	71.13739
519.003	-25.81353
519.21	20.54805
519.418	-67.95008
519.625	-8.95613
519.832	-38.45555
520.039	71.13739
520.247	-2.6342
520.454	37.40968
520.661	20.54805
520.868	26.87099
521.076	54.2728
521.283	33.19413
521.49	-13.17063
521.697	28.97868
521.904	-8.95613
522.112	-76.37618
522.319	-65.84349
522.526	58.48881
522.733	-13.17063
522.94	-0.52684
523.147	33.19413
523.354	-27.92059
523.561	26.87099
523.768	-51.09666
523.975	-34.24164
524.183	50.05688
524.39	7.90283
524.597	5.79537
524.804	58.48881
525.011	1.58054
525.218	16.33288
525.425	-32.13465
525.632	-13.17063
525.838	64.813
526.045	45.84105
526.252	-25.81353
526.459	28.97868
526.666	-42.66935
526.873	-0.52684
527.08	16.33288
527.287	-2.6342
527.494	62.70491
527.701	-4.74153
527.907	-15.27784
528.114	1.58054
528.321	83.78679
528.528	-38.45555
528.735	33.19413
528.941	73.24557
529.148	24.76332
529.355	-8.95613
529.562	7.90283
529.768	-82.69548
529.975	33.19413
530.182	16.33288
530.388	31.08639
530.595	-6.84884
530.802	-42.66935
531.008	-11.06339
531.215	-21.59933
531.422	16.33288
531.628	33.19413
531.835	-34.24164
532.042	10.01031
532.248	28.97868
532.455	-65.84349
532.661	-42.66935
532.868	-32.13465
533.074	88.00344
533.281	26.87099
533.487	-44.77622
533.694	96.437
533.9	16.33288
534.107	50.05688
534.313	16.33288
534.52	-13.17063
534.726	1.58054
534.933	109.088
535.139	18.44046
535.345	-38.45555
535.552	5.79537
535.758	31.08639
535.965	54.2728
536.171	-13.17063
536.377	33.19413
536.584	-84.80186
536.79	-2.6342
536.996	-15.27784
537.203	16.33288
537.409	45.84105
537.615	37.40968
537.821	-30.02763
538.028	-8.95613
538.234	-40.56246
538.44	-44.77622
538.646	47.94895
538.853	39.51749
539.059	-17.38502
539.265	-13.17063
539.471	-46.88306
539.677	-32.13465
539.883	-84.80186
540.09	92.22017
540.296	85.8951
540.502	33.19413
540.708	77.46199
540.914	-8.95613
541.12	41.62532
541.326	-17.38502
541.532	18.44046
541.738	20.54805
541.944	-34.24164
542.15	-17.38502
542.356	73.24557
542.562	12.11781
542.768	-30.02763
542.974	-15.27784
543.18	31.08639
543.386	-74.26969
543.592	24.76332
543.798	-27.92059
544.004	66.92111
544.21	24.76332
544.415	-76.37618
544.621	-6.84884
544.827	26.87099
545.033	-6.84884
545.239	-17.38502
545.445	-6.84884
545.651	90.11179
545.856	-32.13465
546.062	41.62532
546.268	20.54805
546.474	-51.09666
546.679	3.68794
546.885	1.58054
547.091	71.13739
547.297	-48.98987
547.502	33.19413
547.708	-51.09666
547.914	45.84105
548.119	20.54805
548.325	-40.56246
548.531	81.6785
548.736	-19.49219
548.942	-4.74153
549.147	-21.59933
549.353	5.79537
549.559	22.65567
549.764	37.40968
549.97	10.01031
550.175	1.58054
550.381	10.01031
550.586	-32.13465
550.792	-19.49219
550.997	45.84105
551.203	3.68794
551.408	3.68794
551.614	-25.81353
551.819	-19.49219
552.025	31.08639
552.23	-34.24164
552.435	-23.70644
552.641	-8.95613
552.846	-13.17063
553.052	-15.27784
553.257	26.87099
553.462	41.62532
553.668	-8.95613
553.873	-34.24164
554.078	41.62532
554.283	5.79537
554.489	-34.24164
554.694	18.44046
554.899	26.87099
555.105	-19.49219
555.31	-51.09666
555.515	-42.66935
555.72	-2.6342
555.925	37.40968
556.131	-13.17063
556.336	3.68794
556.541	-40.56246
556.746	-8.95613
556.951	-23.70644
557.156	-25.81353
557.361	-21.59933
557.567	45.84105
557.772	7.90283
557.977	-23.70644
558.182	-23.70644
558.387	81.6785
558.592	1.58054
558.797	-42.66935
559.002	-6.84884
559.207	-30.02763
559.412	79.57023
559.617	-55.31017
559.822	18.44046
560.027	-40.56246
560.232	41.62532
560.437	-51.09666
560.642	50.05688
560.847	-15.27784
561.051	-2.6342
561.256	3.68794
561.461	-76.37618
561.666	-0.52684
561.871	-34.24164
562.076	24.76332
562.281	-21.59933
562.485	60.59685
562.69	22.65567
562.895	-6.84884
563.1	20.54805
563.305	-6.84884
563.509	-40.56246
563.714	-27.92059
563.919	24.76332
564.123	-30.02763
564.328	31.08639
564.533	-23.70644
564.737	-8.95613
564.942	-51.09666
565.147	-0.52684
565.351	83.78679
565.556	-0.52684
565.761	-8.95613
565.965	-23.70644
566.17	33.19413
566.374	-21.59933
566.579	18.44046
566.784	24.76332
566.988	-11.06339
567.193	33.19413
567.397	50.05688
567.602	12.11781
567.806	12.11781
568.011	-25.81353
568.215	-34.24164
568.42	7.90283
568.624	-0.52684
568.828	73.24557
569.033	-25.81353
569.237	-13.17063
569.442	-25.81353
569.646	-0.52684
569.85	-0.52684
570.055	-13.17063
570.259	-21.59933
570.463	-21.59933
570.668	37.40968
570.872	18.44046
571.076	-0.52684
571.281	37.40968
571.485	-32.13465
571.689	-4.74153
571.893	-15.27784
572.098	60.59685
572.302	35.30189
572.506	26.87099
572.71	-21.59933
572.914	-101.65198
573.119	16.33288
573.323	-8.95613
573.527	54.2728
573.731	-13.17063
573.935	79.57023
574.139	-6.84884
574.343	-65.84349
574.547	-11.06339
574.751	-38.45555
574.955	-93.22713
575.159	-46.88306
575.364	24.76332
575.568	7.90283
575.772	66.92111
575.976	14.22533
576.18	41.62532
576.383	12.11781
576.587	20.54805
576.791	50.05688
576.995	5.79537
577.199	-72.16318
577.403	-30.02763
577.607	-0.52684
577.811	-8.95613
578.015	1.58054
578.219	-38.45555
578.422	-27.92059
578.626	-21.59933
578.83	10.01031
579.034	-93.22713
579.238	-40.56246
579.442	26.87099
579.645	18.44046
579.849	43.73317
580.053	-27.92059
580.257	-4.74153
580.46	18.44046
580.664	-6.84884
580.868	24.76332
581.071	10.01031
581.275	-32.13465
581.479	20.54805
581.682	7.90283
581.886	-51.09666
582.09	3.68794
582.293	16.33288
582.497	-0.52684
582.7	60.59685
582.904	-15.27784
583.107	-19.49219
583.311	-46.88306
583.515	26.87099
583.718	31.08639
583.922	24.76332
584.125	-44.77622
584.329	-40.56246
584.532	33.19413
584.735	1.58054
584.939	66.92111
585.142	-17.38502
585.346	3.68794
585.549	-8.95613
585.753	-51.09666
585.956	3.68794
586.159	24.76332
586.363	-38.45555
586.566	-42.66935
586.769	-19.49219
586.973	69.02924
587.176	-67.95008
587.379	37.40968
587.582	7.90283
587.786	39.51749
587.989	18.44046
588.192	31.08639
588.395	-15.27784
588.599	24.76332
588.802	-6.84884
589.005	16.33288
589.208	-6.84884
589.411	79.57023
589.615	-4.74153
589.818	24.76332
590.021	-11.06339
590.224	-19.49219
590.427	-6.84884
590.63	-74.26969
590.833	-48.98987
591.036	60.59685
591.239	-74.26969
591.442	-23.70644
591.645	35.30189
591.848	18.44046
592.051	12.11781
592.254	-59.52357
592.457	33.19413
592.66	24.76332
592.863	-8.95613
593.066	-51.09666
593.269	-17.38502
593.472	-8.95613
593.675	18.44046
593.878	-30.02763
594.081	43.73317
594.284	-17.38502
594.486	-8.95613
594.689	-8.95613
594.892	41.62532
595.095	18.44046
595.298	-51.09666
595.5	-70.05664
595.703	85.8951
595.906	-6.84884
596.109	-30.02763
596.311	16.33288
596.514	-89.01455
596.717	56.38079
596.92	-53.20343
597.122	58.48881
597.325	-30.02763
597.528	-42.66935
597.73	-25.81353
597.933	50.05688
598.136	28.97868
598.338	-42.66935
598.541	75.35377
598.743	52.16483
598.946	10.01031
599.148	62.70491
599.351	-34.24164
599.554	-15.27784
599.756	41.62532
599.959	28.97868
600.161	-0.52684
600.363	-23.70644
600.566	7.90283
600.768	-30.02763
600.971	50.05688
601.173	7.90283
601.376	-89.01455
601.578	33.19413
601.78	3.68794
601.983	64.813
602.185	-13.17063
602.388	-6.84884
602.59	-67.95008
602.792	7.90283
602.995	54.2728
603.197	24.76332
603.399	-55.31017
603.601	-51.09666
603.804	-51.09666
604.006	-21.59933
604.208	-25.81353
604.41	-21.59933
604.613	12.11781
604.815	-48.98987
605.017	62.70491
605.219	60.59685
605.421	-51.09666
605.623	16.33288
605.826	20.54805
606.028	66.92111
606.23	-53.20343
606.432	24.76332
606.634	26.87099
606.836	7.90283
607.038	-32.13465
607.24	-38.45555
607.442	47.94895
607.644	16.33288
607.846	-17.38502
608.048	39.51749
608.25	-25.81353
608.452	26.87099
608.654	7.90283
608.856	22.65567
609.058	7.90283
609.26	-8.95613
609.462	-25.81353
609.664	24.76332
609.866	-30.02763
610.067	-15.27784
610.269	-34.24164
610.471	58.48881
610.673	-53.20343
610.875	16.33288
611.077	12.11781
611.278	1.58054
611.48	-34.24164
611.682	31.08639
611.884	22.65567
612.085	-8.95613
612.287	-78.48264
612.489	-8.95613
612.69	-34.24164
612.892	10.01031
613.094	-17.38502
613.295	7.90283
613.497	1.58054
613.699	-34.24164
613.9	10.01031
614.102	69.02924
614.304	-27.92059
614.505	10.01031
614.707	45.84105
614.908	5.79537
615.11	-89.01455
615.311	-6.84884
615.513	37.40968
615.714	10.01031
615.916	16.33288
616.117	-17.38502
616.319	-51.09666
616.52	-8.95613
616.722	20.54805
616.923	5.79537
617.124	-0.52684
617.326	-59.52357
617.527	12.11781
617.729	-2.6342
617.93	54.2728
618.131	22.65567
618.333	1.58054
618.534	-48.98987
618.735	-17.38502
618.937	22.65567
619.138	-48.98987
619.339	-25.81353
619.54	-19.49219
619.742	-34.24164
619.943	-63.73688
620.144	-59.52357
620.345	-42.66935
620.546	-8.95613
620.748	-42.66935
620.949	-55.31017
621.15	-8.95613
621.351	-44.77622
621.552	-80.58907
621.753	22.65567
621.954	-0.52684
622.155	64.813
622.356	3.68794
622.558	-36.3486
622.759	-53.20343
622.96	69.02924
623.161	33.19413
623.362	-42.66935
623.563	-59.52357
623.764	45.84105
623.965	35.30189
624.166	-13.17063
624.366	-21.59933
624.567	58.48881
624.768	-2.6342
624.969	-25.81353
625.17	1.58054
625.371	-89.01455
625.572	-40.56246
625.773	7.90283
625.973	5.79537
626.174	-13.17063
626.375	-0.52684
626.576	3.68794
626.777	3.68794
626.977	45.84105
627.178	12.11781
627.379	45.84105
627.58	-13.17063
627.78	83.78679
627.981	-8.95613
628.182	-42.66935
628.382	24.76332
628.583	1.58054
628.784	33.19413
628.984	7.90283
629.185	58.48881
629.386	52.16483
629.586	-32.13465
629.787	45.84105
629.987	-4.74153
630.188	-36.3486
630.388	-0.52684
630.589	39.51749
630.79	-42.66935
630.99	-15.27784
631.191	39.51749
631.391	-48.98987
631.591	-48.98987
631.792	10.01031
631.992	-32.13465
632.193	-17.38502
632.393	54.2728
632.594	20.54805
632.794	3.68794
632.994	-34.24164
633.195	24.76332
633.395	-4.74153
633.595	20.54805
633.796	24.76332
633.996	3.68794
634.196	12.11781
634.397	-17.38502
634.597	10.01031
634.797	-38.45555
634.997	-0.52684
635.198	-23.70644
635.398	10.01031
635.598	37.40968
635.798	35.30189
635.998	33.19413
636.199	-13.17063
636.399	-15.27784
636.599	-48.98987
636.799	-25.81353
636.999	-15.27784
637.199	-55.31017
637.399	-13.17063
637.599	-15.27784
637.799	22.65567
637.999	-17.38502
638.199	-44.77622
638.399	14.22533
638.599	1.58054
638.799	75.35377
638.999	37.40968
639.199	43.73317
639.399	10.01031
639.599	-15.27784
639.799	16.33288
639.999	79.57023
640.199	-0.52684
640.399	37.40968
640.599	-36.3486
640.799	28.97868
640.998	-34.24164
641.198	-4.74153
641.398	-11.06339
641.598	24.76332
641.798	-23.70644
641.997	90.11179
642.197	58.48881
642.397	-32.13465
642.597	83.78679
642.796	-42.66935
642.996	-34.24164
643.196	-4.74153
643.395	35.30189
643.595	18.44046
643.795	41.62532
643.994	83.78679
644.194	14.22533
644.394	-30.02763
644.593	24.76332
644.793	24.76332
644.992	-4.74153
645.192	-86.90822
645.392	-25.81353
645.591	-13.17063
645.791	62.70491
645.99	60.59685
646.19	18.44046
646.389	-17.38502
646.589	66.92111
646.788	14.22533
646.987	24.76332
647.187	-101.65198
647.386	12.11781
647.586	12.11781
647.785	-11.06339
647.984	-0.52684
648.184	41.62532
648.383	14.22533
648.582	-34.24164
648.782	16.33288
648.981	-53.20343
649.18	-4.74153
649.38	-17.38502
649.579	24.76332
649.778	-25.81353
649.977	45.84105
650.177	-34.24164
650.376	1.58054
650.575	-40.56246
650.774	7.90283
650.973	33.19413
651.173	-25.81353
651.372	92.22017
651.571	58.48881
651.77	1.58054
651.969	7.90283
652.168	16.33288
652.367	54.2728
652.566	18.44046
652.765	-6.84884
652.964	92.22017
653.163	-11.06339
653.362	-32.13465
653.561	-0.52684
653.76	-0.52684
653.959	-21.59933
654.158	-19.49219
654.357	16.33288
654.556	14.22533
654.755	26.87099
654.954	31.08639
655.153	60.59685
655.352	62.70491
655.551	-13.17063
655.749	-0.52684
655.948	10.01031
656.147	-76.37618
656.346	-38.45555
656.545	14.22533
656.743	-48.98987
656.942	-34.24164
657.141	24.76332
657.34	-55.31017
657.538	26.87099
657.737	45.84105
657.936	18.44046
658.135	81.6785
658.333	-8.95613
658.532	-4.74153
658.731	10.01031
658.929	-91.12085
659.128	41.62532
659.326	-55.31017
659.525	-46.88306
659.724	33.19413
659.922	-23.70644
660.121	-27.92059
660.319	28.97868
660.518	-17.38502
660.716	24.76332
660.915	45.84105
661.113	33.19413
661.312	-17.38502
661.51	-25.81353
661.709	-74.26969
661.907	-95.33338
662.105	-38.45555
662.304	47.94895
662.502	-32.13465
662.701	-0.52684
662.899	41.62532
663.097	-36.3486
663.296	39.51749
663.494	94.32857
663.692	56.38079
663.891	-19.49219
664.089	18.44046
664.287	3.68794
664.485	50.05688
664.684	-0.52684
664.882	-51.09666
665.08	-34.24164
665.278	31.08639
665.476	37.40968
665.675	-34.24164
665.873	-0.52684
666.071	-27.92059
666.269	24.76332
666.467	-8.95613
666.665	26.87099
666.863	24.76332
667.061	71.13739
667.259	16.33288
667.457	5.79537
667.655	-17.38502
667.853	12.11781
668.051	-82.69548
668.249	77.46199
668.447	37.40968
668.645	28.97868
668.843	-11.06339
669.041	18.44046
669.239	-32.13465
669.437	-23.70644
669.635	7.90283
669.833	50.05688
670.031	41.62532
670.229	-21.59933
670.426	-19.49219
670.624	-15.27784
670.822	47.94895
671.02	-0.52684
671.218	33.19413
671.415	39.51749
671.613	-11.06339
671.811	41.62532
672.009	35.30189
672.206	-0.52684
672.404	50.05688
672.602	-2.6342
672.799	14.22533
672.997	-11.06339
673.195	22.65567
673.392	16.33288
673.59	-6.84884
673.788	7.90283
673.985	-63.73688
674.183	-2.6342
674.38	-2.6342
674.578	-15.27784
674.775	14.22533
674.973	-4.74153
675.17	-42.66935
675.368	35.30189
675.565	16.33288
675.763	-76.37618
675.96	-76.37618
676.158	-11.06339
676.355	-32.13465
676.553	-67.95008
676.75	-13.17063
676.947	-34.24164
677.145	-21.59933
677.342	3.68794
677.539	-4.74153
677.737	-74.26969
677.934	-8.95613
678.131	-30.02763
678.329	-55.31017
678.526	7.90283
678.723	24.76332
678.92	18.44046
679.118	26.87099
679.315	-13.17063
679.512	22.65567
679.709	-101.65198
679.906	-53.20343
680.104	-36.3486
680.301	-17.38502
680.498	18.44046
680.695	-8.95613
680.892	-42.66935
681.089	-27.92059
681.286	-27.92059
681.483	-42.66935
681.68	43.73317
681.877	81.6785
682.075	1.58054
682.272	-40.56246
682.469	50.05688
682.665	1.58054
682.862	10.01031
683.059	-0.52684
683.256	-36.3486
683.453	3.68794
683.65	33.19413
683.847	-8.95613
684.044	-48.98987
684.241	-4.74153
684.438	-0.52684
684.635	31.08639
684.831	-6.84884
685.028	-51.09666
685.225	94.32857
685.422	-23.70644
685.619	-61.63024
685.815	-0.52684
686.012	52.16483
686.209	41.62532
686.405	-8.95613
686.602	-27.92059
686.799	22.65567
686.996	-86.90822
687.192	60.59685
687.389	-8.95613
687.586	7.90283
687.782	41.62532
687.979	60.59685
688.175	-53.20343
688.372	-38.45555
688.568	71.13739
688.765	-4.74153
688.962	-0.52684
689.158	28.97868
689.355	66.92111
689.551	12.11781
689.748	-8.95613
689.944	-59.52357
690.14	20.54805
690.337	3.68794
690.533	-4.74153
690.73	-67.95008
690.926	-13.17063
691.123	102.7624
691.319	41.62532
691.515	20.54805
691.712	-51.09666
691.908	-15.27784
692.104	-42.66935
692.301	-30.02763
692.497	1.58054
692.693	5.79537
692.889	-76.37618
693.086	71.13739
693.282	88.00344
693.478	50.05688
693.674	-25.81353
693.87	-11.06339
694.067	79.57023
694.263	-15.27784
694.459	71.13739
694.655	-6.84884
694.851	31.08639
695.047	31.08639
695.243	-42.66935
695.439	-8.95613
695.635	20.54805
695.831	26.87099
696.027	-36.3486
696.224	58.48881
696.42	-27.92059
696.615	-6.84884
696.811	104.87091
697.007	-6.84884
697.203	-6.84884
697.399	-23.70644
697.595	-42.66935
697.791	-59.52357
697.987	-2.6342
698.183	73.24557
698.379	16.33288
698.575	7.90283
698.77	-51.09666
698.966	-34.24164
699.162	-13.17063
699.358	-0.52684
699.554	-6.84884
699.749	-21.59933
699.945	7.90283
700.141	-6.84884
700.337	-2.6342
700.532	14.22533
700.728	-63.73688
700.924	-44.77622
701.119	56.38079
701.315	37.40968
701.511	-25.81353
701.706	73.24557
701.902	-51.09666
702.097	33.19413
702.293	-34.24164
702.489	16.33288
702.684	14.22533
702.88	50.05688
703.075	28.97868
703.271	18.44046
703.466	-17.38502
703.662	28.97868
703.857	-38.45555
704.053	3.68794
704.248	12.11781
704.443	-32.13465
704.639	-2.6342
704.834	33.19413
705.03	26.87099
705.225	-25.81353
705.42	45.84105
705.616	-51.09666
705.811	33.19413
706.006	-34.24164
706.202	54.2728
706.397	-13.17063
706.592	50.05688
706.787	-30.02763
706.983	28.97868
707.178	60.59685
707.373	-51.09666
707.568	-25.81353
707.763	1.58054
707.959	-8.95613
708.154	-17.38502
708.349	-25.81353
708.544	-80.58907
708.739	-67.95008
708.934	7.90283
709.129	-0.52684
709.324	104.87091
709.519	33.19413
709.714	-4.74153
709.909	10.01031
710.104	14.22533
710.299	69.02924
710.494	12.11781
710.689	-40.56246
710.884	7.90283
711.079	1.58054
711.274	31.08639
711.469	-25.81353
711.664	22.65567
711.859	24.76332
712.054	64.813
712.249	-46.88306
712.443	20.54805
712.638	-32.13465
712.833	39.51749
713.028	18.44046
713.223	-34.24164
713.417	-51.09666
713.612	45.84105
713.807	12.11781
714.002	20.54805
714.196	-63.73688
714.391	1.58054
714.586	-34.24164
714.78	16.33288
714.975	22.65567
715.17	-8.95613
715.364	-6.84884
715.559	-34.24164
715.754	-27.92059
715.948	12.11781
716.143	-6.84884
716.337	50.05688
716.532	58.48881
716.726	-4.74153
716.921	50.05688
717.115	52.16483
717.31	-21.59933
717.504	-21.59933
717.699	3.68794
717.893	-8.95613
718.088	37.40968
718.282	-55.31017
718.476	1.58054
718.671	18.44046
718.865	85.8951
719.059	-34.24164
719.254	-34.24164
719.448	58.48881
719.642	33.19413
719.837	16.33288
720.031	-53.20343
720.225	-57.41689
720.419	62.70491
720.614	16.33288
720.808	-17.38502
721.002	50.05688
721.196	60.59685
721.39	-51.09666
721.585	18.44046
721.779	10.01031
721.973	-17.38502
722.167	56.38079
722.361	69.02924
722.555	-32.13465
722.749	-17.38502
722.943	18.44046
723.137	-53.20343
723.331	16.33288
723.525	-78.48264
723.719	-25.81353
723.913	-25.81353
724.107	-78.48264
724.301	-76.37618
724.495	-0.52684
724.689	-76.37618
724.883	35.30189
725.077	35.30189
725.271	50.05688
725.465	-4.74153
725.659	-2.6342
725.853	-51.09666
726.046	24.76332
726.24	41.62532
726.434	7.90283
726.628	-8.95613
726.822	-51.09666
727.015	12.11781
727.209	33.19413
727.403	-21.59933
727.596	64.813
727.79	33.19413
727.984	-23.70644
728.177	-44.77622
728.371	-34.24164
728.565	-34.24164
728.758	56.38079
728.952	-25.81353
729.146	-8.95613
729.339	-6.84884
729.533	-67.95008
729.726	-0.52684
729.92	50.05688
730.113	1.58054
730.307	66.92111
730.5	54.2728
730.694	18.44046
730.887	20.54805
731.081	-34.24164
731.274	-13.17063
731.468	-4.74153
731.661	35.30189
731.854	-11.06339
732.048	50.05688
732.241	45.84105
732.435	7.90283
732.628	-17.38502
732.821	81.6785
733.014	1.58054
733.208	28.97868
733.401	-38.45555
733.594	28.97868
733.788	52.16483
733.981	75.35377
734.174	16.33288
734.367	-67.95008
734.56	-40.56246
734.754	28.97868
734.947	-55.31017
735.14	3.68794
735.333	7.90283
735.526	-0.52684
735.719	-19.49219
735.912	58.48881
736.105	-76.37618
736.298	3.68794
736.491	-55.31017
736.684	-30.02763
736.877	79.57023
737.07	-17.38502
737.263	-0.52684
737.456	33.19413
737.649	-63.73688
737.842	14.22533
738.035	41.62532
738.228	-17.38502
738.421	-42.66935
738.614	10.01031
738.807	-17.38502
739	-80.58907
739.192	18.44046
739.385	-11.06339
739.578	-19.49219
739.771	-21.59933
739.964	45.84105
740.156	45.84105
740.349	-27.92059
740.542	41.62532
740.735	56.38079
740.927	-46.88306
741.12	18.44046
741.313	39.51749
741.505	18.44046
741.698	16.33288
741.891	16.33288
742.083	-40.56246
742.276	-36.3486
742.468	16.33288
742.661	37.40968
742.854	71.13739
743.046	-0.52684
743.239	-34.24164
743.431	54.2728
743.624	-61.63024
743.816	10.01031
744.009	-17.38502
744.201	58.48881
744.393	7.90283
744.586	75.35377
744.778	7.90283
744.971	50.05688
745.163	-27.92059
745.355	7.90283
745.548	26.87099
745.74	-48.98987
745.932	28.97868
746.125	1.58054
746.317	50.05688
746.509	77.46199
746.702	58.48881
746.894	45.84105
747.086	43.73317
747.278	66.92111
747.471	18.44046
747.663	-59.52357
747.855	-4.74153
748.047	43.73317
748.239	-8.95613
748.431	-48.98987
748.623	33.19413
748.815	-0.52684
749.008	-0.52684
749.2	-27.92059
749.392	-46.88306
749.584	5.79537
749.776	33.19413
749.968	-25.81353
750.16	35.30189
750.352	33.19413
750.544	-17.38502
750.736	58.48881
750.928	-25.81353
751.12	-46.88306
751.311	37.40968
751.503	111.19658
751.695	18.44046
751.887	20.54805
752.079	-13.17063
752.271	-55.31017
752.463	-25.81353
752.654	-4.74153
752.846	-30.02763
753.038	-34.24164
753.23	60.59685
753.421	-32.13465
753.613	-23.70644
753.805	-51.09666
753.997	-8.95613
754.188	20.54805
754.38	58.48881
754.572	-42.66935
754.763	-25.81353
754.955	-21.59933
755.146	-32.13465
755.338	-57.41689
755.53	109.088
755.721	12.11781
755.913	28.97868
756.104	-65.84349
756.296	-27.92059
756.487	92.22017
756.679	3.68794
756.87	33.19413
757.062	1.58054
757.253	26.87099
757.445	1.58054
757.636	-48.98987
757.827	12.11781
758.019	18.44046
758.21	7.90283
758.401	-27.92059
758.593	50.05688
758.784	-34.24164
758.975	-6.84884
759.167	-8.95613
759.358	-51.09666
759.549	-0.52684
759.74	20.54805
759.932	12.11781
760.123	16.33288
760.314	20.54805
760.505	14.22533
760.696	-21.59933
760.888	-34.24164
761.079	35.30189
761.27	-8.95613
761.461	-40.56246
761.652	10.01031
761.843	47.94895
762.034	-6.84884
762.225	33.19413
762.416	-6.84884
762.607	-25.81353
762.798	-59.52357
762.989	18.44046
763.18	35.30189
763.371	12.11781
763.562	20.54805
763.753	3.68794
763.944	-59.52357
764.135	-57.41689
764.326	12.11781
764.517	-17.38502
764.708	3.68794
764.899	123.8485
765.089	43.73317
765.28	-99.54581
765.471	37.40968
765.662	22.65567
765.853	33.19413
766.043	24.76332
766.234	1.58054
766.425	50.05688
766.615	14.22533
766.806	45.84105
766.997	16.33288
767.187	28.97868
767.378	16.33288
767.569	-4.74153
767.759	-8.95613
767.95	54.2728
768.141	1.58054
768.331	-46.88306
768.522	24.76332
768.712	-8.95613
768.903	-21.59933
769.093	18.44046
769.284	71.13739
769.474	24.76332
769.665	60.59685
769.855	-15.27784
770.046	7.90283
770.236	-42.66935
770.426	16.33288
770.617	3.68794
770.807	-32.13465
770.998	45.84105
771.188	-19.49219
771.378	50.05688
771.569	39.51749
771.759	79.57023
771.949	39.51749
772.139	-32.13465
772.33	-4.74153
772.52	24.76332
772.71	-8.95613
772.9	50.05688
773.09	-34.24164
773.281	-42.66935
773.471	5.79537
773.661	1.58054
773.851	-0.52684
774.041	-0.52684
774.231	-55.31017
774.421	41.62532
774.611	-61.63024
774.802	96.437
774.992	-46.88306
775.182	50.05688
775.372	35.30189
775.562	-36.3486
775.752	-93.22713
775.942	24.76332
776.131	7.90283
776.321	-6.84884
776.511	-8.95613
776.701	14.22533
776.891	-19.49219
777.081	-44.77622
777.271	28.97868
777.461	-25.81353
777.651	-27.92059
777.84	-46.88306
778.03	-13.17063
778.22	-55.31017
778.41	-17.38502
778.599	-15.27784
778.789	7.90283
778.979	26.87099
779.169	-6.84884
779.358	10.01031
779.548	-19.49219
779.738	26.87099
779.927	20.54805
780.117	104.87091
780.307	-0.52684
780.496	45.84105
780.686	94.32857
780.875	45.84105
781.065	39.51749
781.254	-32.13465
781.444	-46.88306
781.633	-0.52684
781.823	-8.95613
782.012	58.48881
782.202	-114.28848
782.391	47.94895
782.581	-25.81353
782.77	26.87099
782.96	37.40968
783.149	-101.65198
783.338	28.97868
783.528	31.08639
783.717	12.11781
783.906	-30.02763
784.096	41.62532
784.285	-34.24164
784.474	-8.95613
784.663	3.68794
784.853	-8.95613
785.042	-46.88306
785.231	16.33288
785.42	3.68794
785.61	-0.52684
785.799	-30.02763
785.988	31.08639
786.177	-55.31017
786.366	-11.06339
786.555	3.68794
786.744	3.68794
786.933	81.6785
787.122	-34.24164
787.312	-55.31017
787.501	10.01031
787.69	41.62532
787.879	18.44046
788.068	75.35377
788.257	3.68794
788.445	-25.81353
788.634	-124.81816
788.823	85.8951
789.012	12.11781
789.201	-15.27784
789.39	16.33288
789.579	-25.81353
789.768	-57.41689
789.957	10.01031
790.145	16.33288
790.334	-21.59933
790.523	45.84105
790.712	-6.84884
790.9	-59.52357
791.089	26.87099
791.278	-23.70644
791.467	-17.38502
791.655	85.8951
791.844	1.58054
792.033	24.76332
792.221	58.48881
792.41	28.97868
792.599	-46.88306
792.787	100.65391
792.976	20.54805
793.164	-32.13465
793.353	33.19413
793.541	12.11781
793.73	-72.16318
793.918	50.05688
794.107	16.33288
794.295	-4.74153
794.484	33.19413
794.672	-11.06339
794.861	43.73317
795.049	-46.88306
795.238	1.58054
795.426	79.57023
795.614	37.40968
795.803	24.76332
795.991	58.48881
796.179	16.33288
796.368	41.62532
796.556	45.84105
796.744	75.35377
796.932	28.97868
797.121	5.79537
797.309	-17.38502
797.497	-46.88306
797.685	20.54805
797.874	58.48881
798.062	18.44046
798.25	5.79537
798.438	41.62532
798.626	-4.74153
798.814	-27.92059
799.002	12.11781
799.19	71.13739
799.378	18.44046
799.566	-25.81353
799.755	45.84105
799.943	41.62532
800.131	88.00344
800.318	20.54805
800.506	-4.74153
800.694	71.13739
800.882	62.70491
801.07	10.01031
801.258	-36.3486
801.446	12.11781
801.634	-42.66935
801.822	-25.81353
802.01	-30.02763
802.197	52.16483
802.385	-40.56246
802.573	-13.17063
802.761	-25.81353
802.949	-34.24164
803.136	111.19658
803.324	26.87099
803.512	-8.95613
803.699	58.48881
803.887	-25.81353
804.075	33.19413
804.262	66.92111
804.45	-0.52684
804.638	39.51749
804.825	-25.81353
805.013	-2.6342
805.201	-63.73688
805.388	-25.81353
805.576	-8.95613
805.763	16.33288
805.951	16.33288
806.138	-32.13465
806.326	-11.06339
806.513	24.76332
806.701	-19.49219
806.888	58.48881
807.075	54.2728
807.263	24.76332
807.45	3.68794
807.638	-57.41689
807.825	33.19413
808.012	28.97868
808.2	28.97868
808.387	60.59685
808.574	60.59685
808.761	-27.92059
808.949	-27.92059
809.136	26.87099
809.323	33.19413
809.51	35.30189
809.698	85.8951
809.885	45.84105
810.072	1.58054
810.259	3.68794
810.446	-23.70644
810.633	66.92111
810.82	43.73317
811.008	-23.70644
811.195	16.33288
811.382	24.76332
811.569	92.22017
811.756	16.33288
811.943	-6.84884
812.13	47.94895
812.317	-25.81353
812.504	-0.52684
812.691	-13.17063
812.878	14.22533
813.064	33.19413
813.251	20.54805
813.438	-34.24164
813.625	-2.6342
813.812	109.088
813.999	-17.38502
814.186	16.33288
814.372	-25.81353
814.559	16.33288
814.746	28.97868
814.933	77.46199
815.12	-25.81353
815.306	35.30189
815.493	18.44046
815.68	-40.56246
815.866	39.51749
816.053	16.33288
816.24	7.90283
816.426	-25.81353
816.613	92.22017
816.799	28.97868
816.986	14.22533
817.173	-11.06339
817.359	35.30189
817.546	83.78679
817.732	12.11781
817.919	-40.56246
818.105	88.00344
818.292	-55.31017
818.478	33.19413
818.665	-8.95613
818.851	-4.74153
819.037	-4.74153
819.224	12.11781
819.41	12.11781
819.597	20.54805
819.783	3.68794
819.969	58.48881
820.156	-8.95613
820.342	28.97868
820.528	-27.92059
820.714	33.19413
820.901	20.54805
821.087	-51.09666
821.273	18.44046
821.459	31.08639
821.646	24.76332
821.832	1.58054
822.018	12.11781
822.204	10.01031
822.39	-6.84884
822.576	-8.95613
822.762	-72.16318
822.948	28.97868
823.134	41.62532
823.32	50.05688
823.507	-6.84884
823.693	31.08639
823.879	-38.45555
824.065	54.2728
824.25	-23.70644
824.436	24.76332
824.622	33.19413
824.808	-30.02763
824.994	16.33288
825.18	18.44046
825.366	18.44046
825.552	3.68794
825.738	10.01031
825.923	-15.27784
826.109	24.76332
826.295	-25.81353
826.481	-42.66935
826.667	54.2728
826.852	-63.73688
827.038	-6.84884
827.224	26.87099
827.409	50.05688
827.595	-4.74153
827.781	20.54805
827.966	1.58054
828.152	-19.49219
828.338	-72.16318
828.523	-13.17063
828.709	-15.27784
828.894	-36.3486
829.08	-30.02763
829.266	-34.24164
829.451	-0.52684
829.637	-0.52684
829.822	-17.38502
830.008	20.54805
830.193	41.62532
830.378	14.22533
830.564	28.97868
830.749	7.90283
830.935	37.40968
831.12	-19.49219
831.305	28.97868
831.491	-13.17063
831.676	-23.70644
831.861	50.05688
832.047	7.90283
832.232	37.40968
832.417	-30.02763
832.602	26.87099
832.788	-23.70644
832.973	16.33288
833.158	-63.73688
833.343	-30.02763
833.528	-48.98987
833.714	-48.98987
833.899	-76.37618
834.084	-4.74153
834.269	12.11781
834.454	5.79537
834.639	-34.24164
834.824	16.33288
835.009	22.65567
835.194	-6.84884
835.379	24.76332
835.564	12.11781
835.749	71.13739
835.934	39.51749
836.119	1.58054
836.304	-15.27784
836.489	28.97868
836.674	14.22533
836.859	10.01031
837.044	119.63111
837.228	-40.56246
837.413	7.90283
837.598	-63.73688
837.783	-4.74153
837.968	1.58054
838.152	-27.92059
838.337	37.40968
838.522	26.87099
838.707	-51.09666
838.891	20.54805
839.076	16.33288
839.261	33.19413
839.445	-65.84349
839.63	52.16483
839.815	33.19413
839.999	-13.17063
840.184	33.19413
840.368	33.19413
840.553	-23.70644
840.737	7.90283
840.922	71.13739
841.106	16.33288
841.291	10.01031
841.475	45.84105
841.66	71.13739
841.844	-4.74153
842.029	77.46199
842.213	54.2728
842.397	-36.3486
842.582	-0.52684
842.766	20.54805
842.951	20.54805
843.135	28.97868
843.319	-80.58907
843.504	-17.38502
843.688	-38.45555
843.872	-0.52684
844.056	24.76332
844.241	-23.70644
844.425	-4.74153
844.609	-34.24164
844.793	7.90283
844.977	-13.17063
845.161	-34.24164
845.346	37.40968
845.53	24.76332
845.714	-21.59933
845.898	54.2728
846.082	20.54805
846.266	-8.95613
846.45	-76.37618
846.634	18.44046
846.818	-19.49219
847.002	16.33288
847.186	28.97868
847.37	96.437
847.554	-89.01455
847.738	-105.86425
847.922	41.62532
848.106	22.65567
848.29	-8.95613
848.473	33.19413
848.657	50.05688
848.841	1.58054
849.025	-11.06339
849.209	-6.84884
849.392	16.33288
849.576	-11.06339
849.76	-17.38502
849.944	28.97868
850.127	3.68794
850.311	22.65567
850.495	-23.70644
850.678	-8.95613
850.862	90.11179
851.046	-15.27784
851.229	56.38079
851.413	-0.52684
851.596	-6.84884
851.78	-4.74153
851.964	62.70491
852.147	79.57023
852.331	-21.59933
852.514	-11.06339
852.698	-25.81353
852.881	-57.41689
853.065	-72.16318
853.248	41.62532
853.431	-25.81353
853.615	3.68794
853.798	-6.84884
853.982	10.01031
854.165	16.33288
854.348	43.73317
854.532	-30.02763
854.715	22.65567
854.898	12.11781
855.081	26.87099
855.265	5.79537
855.448	7.90283
855.631	-0.52684
855.814	-25.81353
855.997	10.01031
856.181	10.01031
856.364	-2.6342
856.547	47.94895
856.73	-19.49219
856.913	45.84105
857.096	66.92111
857.279	1.58054
857.462	7.90283
857.645	-21.59933
857.828	20.54805
858.011	24.76332
858.194	-25.81353
858.377	-48.98987
858.56	26.87099
858.743	3.68794
858.926	85.8951
859.109	18.44046
859.292	31.08639
859.475	7.90283
859.658	20.54805
859.841	-30.02763
860.023	47.94895
860.206	-23.70644
860.389	-51.09666
860.572	-0.52684
860.755	33.19413
860.937	-23.70644
861.12	62.70491
861.303	45.84105
861.486	-8.95613
861.668	18.44046
861.851	3.68794
862.034	33.19413
862.216	45.84105
862.399	-34.24164
862.581	-40.56246
862.764	-0.52684
862.947	7.90283
863.129	41.62532
863.312	58.48881
863.494	50.05688
863.677	31.08639
863.859	58.48881
864.042	24.76332
864.224	-17.38502
864.406	26.87099
864.589	-30.02763
864.771	5.79537
864.954	20.54805
865.136	54.2728
865.318	-65.84349
865.501	-13.17063
865.683	31.08639
865.865	-32.13465
866.048	-40.56246
866.23	-23.70644
866.412	71.13739
866.594	-38.45555
866.777	16.33288
866.959	128.06598
867.141	33.19413
867.323	-2.6342
867.505	-48.98987
867.687	-15.27784
867.869	7.90283
868.052	26.87099
868.234	41.62532
868.416	16.33288
868.598	37.40968
868.78	20.54805
868.962	85.8951
869.144	3.68794
869.326	-25.81353
869.508	58.48881
869.69	-65.84349
869.872	14.22533
870.054	-0.52684
870.236	33.19413
870.417	81.6785
870.599	-13.17063
870.781	-0.52684
870.963	-30.02763
871.145	56.38079
871.327	28.97868
871.508	-63.73688
871.69	-13.17063
871.872	26.87099
872.054	41.62532
872.235	24.76332
872.417	7.90283
872.599	75.35377
872.78	-67.95008
872.962	66.92111
873.144	79.57023
873.325	7.90283
873.507	18.44046
873.689	-17.38502
873.87	41.62532
874.052	-27.92059
874.233	-4.74153
874.415	37.40968
874.596	54.2728
874.778	-27.92059
874.959	41.62532
875.141	-34.24164
875.322	-80.58907
875.503	-2.6342
875.685	45.84105
875.866	-25.81353
876.048	-13.17063
876.229	10.01031
876.41	64.813
876.592	-0.52684
876.773	20.54805
876.954	-42.66935
877.136	16.33288
877.317	-11.06339
877.498	16.33288
877.679	26.87099
877.86	-65.84349
878.042	-59.52357
878.223	-32.13465
878.404	-57.41689
878.585	-63.73688
878.766	35.30189
878.947	18.44046
879.128	45.84105
879.309	-38.45555
879.49	83.78679
879.672	14.22533
879.853	1.58054
880.034	-11.06339
880.215	16.33288
880.396	1.58054
880.576	-38.45555
880.757	1.58054
880.938	50.05688
881.119	-34.24164
881.3	-55.31017
881.481	18.44046
881.662	45.84105
881.843	20.54805
882.023	50.05688
882.204	-15.27784
882.385	-42.66935
882.566	-38.45555
882.747	-13.17063
882.927	24.76332
883.108	-46.88306
883.289	-17.38502
883.469	41.62532
883.65	-23.70644
883.831	-48.98987
884.011	22.65567
884.192	-25.81353
884.373	-6.84884
884.553	18.44046
884.734	20.54805
884.914	20.54805
885.095	45.84105
885.275	-34.24164
885.456	-8.95613
885.636	20.54805
885.817	-89.01455
885.997	-21.59933
886.178	-8.95613
886.358	-21.59933
886.538	28.97868
886.719	7.90283
886.899	-36.3486
887.08	47.94895
887.26	18.44046
887.44	-0.52684
887.621	-44.77622
887.801	-0.52684
887.981	12.11781
888.161	-42.66935
888.342	-15.27784
888.522	10.01031
888.702	16.33288
888.882	26.87099
889.062	1.58054
889.242	50.05688
889.423	7.90283
889.603	-8.95613
889.783	-34.24164
889.963	-40.56246
890.143	-25.81353
890.323	-32.13465
890.503	-51.09666
890.683	28.97868
890.863	20.54805
891.043	-8.95613
891.223	-8.95613
891.403	-11.06339
891.583	-40.56246
891.763	-48.98987
891.943	10.01031
892.122	37.40968
892.302	-4.74153
892.482	-6.84884
892.662	5.79537
892.842	33.19413
893.022	-32.13465
893.201	45.84105
893.381	5.79537
893.561	7.90283
893.741	64.813
893.92	26.87099
894.1	50.05688
894.28	31.08639
894.459	39.51749
894.639	71.13739
894.819	-34.24164
894.998	-42.66935
895.178	14.22533
895.357	-23.70644
895.537	24.76332
895.716	28.97868
895.896	66.92111
896.075	54.2728
896.255	41.62532
896.434	-57.41689
896.614	1.58054
896.793	-23.70644
896.973	18.44046
897.152	62.70491
897.331	77.46199
897.511	-8.95613
897.69	-21.59933
897.87	-11.06339
898.049	41.62532
898.228	7.90283
898.407	50.05688
898.587	16.33288
898.766	7.90283
898.945	-27.92059
899.124	-65.84349
899.304	-4.74153
899.483	43.73317
899.662	52.16483
899.841	-4.74153
900.02	-17.38502
900.199	31.08639
900.378	-38.45555
900.557	-4.74153
900.737	12.11781
900.916	-0.52684
901.095	10.01031
901.274	-30.02763
901.453	-34.24164
901.632	-8.95613
901.811	-48.98987
901.989	22.65567
902.168	66.92111
902.347	-6.84884
902.526	50.05688
902.705	7.90283
902.884	106.97945
903.063	-42.66935
903.242	-17.38502
903.42	33.19413
903.599	26.87099
903.778	-25.81353
903.957	41.62532
904.135	16.33288
904.314	69.02924
904.493	16.33288
904.672	-0.52684
904.85	-13.17063
905.029	20.54805
905.207	7.90283
905.386	39.51749
905.565	-15.27784
905.743	22.65567
905.922	79.57023
906.1	-19.49219
906.279	-21.59933
906.457	16.33288
906.636	-6.84884
906.814	-61.63024
906.993	20.54805
907.171	-21.59933
907.35	-13.17063
907.528	26.87099
907.707	43.73317
907.885	1.58054
908.063	20.54805
908.242	1.58054
908.42	-38.45555
908.598	28.97868
908.777	33.19413
908.955	-6.84884
909.133	-13.17063
909.311	-32.13465
909.49	-11.06339
909.668	75.35377
909.846	-27.92059
910.024	41.62532
910.202	24.76332
910.38	-17.38502
910.559	18.44046
910.737	18.44046
910.915	56.38079
911.093	-25.81353
911.271	47.94895
911.449	37.40968
911.627	7.90283
911.805	83.78679
911.983	28.97868
912.161	-17.38502
912.339	-2.6342
912.517	-8.95613
912.695	94.32857
912.872	33.19413
913.05	37.40968
913.228	39.51749
913.406	-2.6342
913.584	1.58054
913.762	-48.98987
913.939	5.79537
914.117	50.05688
914.295	-15.27784
914.473	-65.84349
914.65	7.90283
914.828	33.19413
915.006	-0.52684
915.184	58.48881
915.361	33.19413
915.539	7.90283
915.716	7.90283
915.894	-4.74153
916.072	18.44046
916.249	20.54805
916.427	-11.06339
916.604	-38.45555
916.782	1.58054
916.959	-42.66935
917.137	-38.45555
917.314	-21.59933
917.492	45.84105
917.669	-32.13465
917.847	69.02924
918.024	37.40968
918.201	50.05688
918.379	-48.98987
918.556	-4.74153
918.733	-17.38502
918.911	-48.98987
919.088	14.22533
919.265	-6.84884
919.442	-0.52684
919.62	43.73317
919.797	12.11781
919.974	1.58054
920.151	-21.59933
920.328	12.11781
920.506	-46.88306
920.683	-17.38502
920.86	62.70491
921.037	-21.59933
921.214	45.84105
921.391	-8.95613
921.568	28.97868
921.745	94.32857
921.922	-17.38502
922.099	56.38079
922.276	-2.6342
922.453	10.01031
922.63	16.33288
922.807	-19.49219
922.984	47.94895
923.161	37.40968
923.338	58.48881
923.514	-44.77622
923.691	7.90283
923.868	16.33288
924.045	20.54805
924.222	-11.06339
924.399	-76.37618
924.575	18.44046
924.752	7.90283
924.929	50.05688
925.105	3.68794
925.282	7.90283
925.459	7.90283
925.635	58.48881
925.812	-11.06339
925.989	16.33288
926.165	16.33288
926.342	-65.84349
926.518	5.79537
926.695	16.33288
926.871	-8.95613
927.048	56.38079
927.224	-19.49219
927.401	117.52244
927.577	16.33288
927.754	12.11781
927.93	3.68794
928.107	45.84105
928.283	-19.49219
928.459	54.2728
928.636	1.58054
928.812	-23.70644
928.988	52.16483
929.165	5.79537
929.341	50.05688
929.517	26.87099
929.693	-25.81353
929.87	-44.77622
930.046	7.90283
930.222	-8.95613
930.398	60.59685
930.574	-42.66935
930.751	-8.95613
930.927	54.2728
931.103	62.70491
931.279	31.08639
931.455	-30.02763
931.631	-84.80186
931.807	20.54805
931.983	7.90283
932.159	-8.95613
932.335	33.19413
932.511	-25.81353
932.687	16.33288
932.863	7.90283
933.039	100.65391
933.215	50.05688
933.391	128.06598
933.566	-17.38502
933.742	-32.13465
933.918	-27.92059
934.094	-46.88306
934.27	-59.52357
934.445	-25.81353
934.621	52.16483
934.797	45.84105
934.973	37.40968
935.148	33.19413
935.324	-19.49219
935.5	102.7624
935.675	-8.95613
935.851	73.24557
936.027	-40.56246
936.202	52.16483
936.378	-51.09666
936.553	66.92111
936.729	-13.17063
936.904	-27.92059
937.08	16.33288
937.255	5.79537
937.431	35.30189
937.606	-17.38502
937.782	33.19413
937.957	52.16483
938.133	22.65567
938.308	-19.49219
938.483	26.87099
938.659	1.58054
938.834	-11.06339
939.009	-25.81353
939.185	-46.88306
939.36	37.40968
939.535	-40.56246
939.71	7.90283
939.886	20.54805
940.061	-17.38502
940.236	-21.59933
940.411	26.87099
940.586	-30.02763
940.761	-0.52684
940.937	10.01031
941.112	14.22533
941.287	52.16483
941.462	-48.98987
941.637	-15.27784
941.812	43.73317
941.987	-13.17063
942.162	-8.95613
942.337	-15.27784
942.512	7.90283
942.687	20.54805
942.862	33.19413
943.037	-17.38502
943.212	-42.66935
943.386	-51.09666
943.561	7.90283
943.736	-6.84884
943.911	-2.6342
944.086	-48.98987
944.26	-25.81353
944.435	-2.6342
944.61	-48.98987
944.785	35.30189
944.959	-21.59933
945.134	7.90283
945.309	35.30189
945.483	7.90283
945.658	-0.52684
945.833	31.08639
946.007	31.08639
946.182	-67.95008
946.357	41.62532
946.531	-11.06339
946.706	7.90283
946.88	-51.09666
947.055	-4.74153
947.229	7.90283
947.404	3.68794
947.578	79.57023
947.752	-23.70644
947.927	-34.24164
948.101	60.59685
948.276	-13.17063
948.45	-0.52684
948.624	1.58054
948.799	20.54805
948.973	1.58054
949.147	-6.84884
949.321	24.76332
949.496	-48.98987
949.67	-44.77622
949.844	-38.45555
950.018	-57.41689
950.193	3.68794
950.367	-17.38502
950.541	7.90283
950.715	45.84105
950.889	5.79537
951.063	58.48881
951.237	77.46199
951.411	-30.02763
951.585	-15.27784
951.759	12.11781
951.933	3.68794
952.107	3.68794
952.281	39.51749
952.455	-46.88306
952.629	43.73317
952.803	-15.27784
952.977	43.73317
953.151	37.40968
953.325	-19.49219
953.499	-61.63024
953.672	-2.6342
953.846	-74.26969
954.02	-8.95613
954.194	43.73317
954.368	3.68794
954.541	-19.49219
954.715	35.30189
954.889	-55.31017
955.062	-8.95613
955.236	-32.13465
955.41	16.33288
955.583	-30.02763
955.757	43.73317
955.93	33.19413
956.104	-0.52684
956.278	24.76332
956.451	-0.52684
956.625	16.33288
956.798	-8.95613
956.972	50.05688
957.145	-38.45555
957.319	-21.59933
957.492	24.76332
957.665	24.76332
957.839	10.01031
958.012	-42.66935
958.185	33.19413
958.359	10.01031
958.532	22.65567
958.705	-0.52684
958.879	-23.70644
959.052	64.813
959.225	-40.56246
959.398	56.38079
959.572	41.62532
959.745	-34.24164
959.918	-40.56246
960.091	-8.95613
960.264	7.90283
960.438	16.33288
960.611	66.92111
960.784	-89.01455
960.957	33.19413
961.13	54.2728
961.303	-19.49219
961.476	26.87099
961.649	54.2728
961.822	-0.52684
961.995	-21.59933
962.168	18.44046
962.341	-15.27784
962.514	-91.12085
962.686	39.51749
962.859	-15.27784
963.032	-76.37618
963.205	24.76332
963.378	-0.52684
963.551	12.11781
963.723	-8.95613
963.896	71.13739
964.069	-4.74153
964.242	10.01031
964.414	66.92111
964.587	50.05688
964.76	-40.56246
964.932	-0.52684
965.105	-32.13465
965.278	-57.41689
965.45	-13.17063
965.623	33.19413
965.795	52.16483
965.968	5.79537
966.14	26.87099
966.313	-17.38502
966.485	18.44046
966.658	24.76332
966.83	41.62532
967.003	-67.95008
967.175	33.19413
967.348	-25.81353
967.52	90.11179
967.692	52.16483
967.865	66.92111
968.037	-25.81353
968.209	18.44046
968.382	69.02924
968.554	-38.45555
968.726	-15.27784
968.898	-2.6342
969.071	3.68794
969.243	24.76332
969.415	-4.74153
969.587	-48.98987
969.759	-25.81353
969.932	-42.66935
970.104	-23.70644
970.276	26.87099
970.448	28.97868
970.62	-48.98987
970.792	-34.24164
970.964	41.62532
971.136	81.6785
971.308	37.40968
971.48	14.22533
971.652	-4.74153
971.824	22.65567
971.996	-44.77622
972.168	24.76332
972.339	-6.84884
972.511	-4.74153
972.683	96.437
972.855	24.76332
973.027	-0.52684
973.199	-63.73688
973.37	-0.52684
973.542	-51.09666
973.714	-25.81353
973.886	35.30189
974.057	1.58054
974.229	47.94895
974.401	-40.56246
974.572	33.19413
974.744	-27.92059
974.915	43.73317
975.087	56.38079
975.259	7.90283
975.43	-93.22713
975.602	-6.84884
975.773	62.70491
975.945	-63.73688
976.116	-23.70644
976.288	-17.38502
976.459	52.16483
976.63	24.76332
976.802	-11.06339
976.973	-101.65198
977.145	-11.06339
977.316	28.97868
977.487	28.97868
977.659	50.05688
977.83	-34.24164
978.001	-4.74153
978.172	66.92111
978.344	-51.09666
978.515	-19.49219
978.686	-25.81353
978.857	35.30189
979.028	3.68794
979.2	18.44046
979.371	33.19413
979.542	14.22533
979.713	7.90283
979.884	37.40968
980.055	-93.22713
980.226	-15.27784
980.397	-40.56246
980.568	-32.13465
980.739	35.30189
980.91	-55.31017
981.081	-15.27784
981.252	-17.38502
981.423	5.79537
981.594	-40.56246
981.765	54.2728
981.936	45.84105
982.106	-42.66935
982.277	-15.27784
982.448	37.40968
982.619	10.01031
982.79	-17.38502
982.96	-17.38502
983.131	-0.52684
983.302	20.54805
983.472	-59.52357
983.643	58.48881
983.814	85.8951
983.984	-6.84884
984.155	-21.59933
984.326	-17.38502
984.496	-25.81353
984.667	26.87099
984.837	-55.31017
985.008	-46.88306
985.178	-17.38502
985.349	58.48881
985.519	-8.95613
985.69	22.65567
985.86	43.73317
986.031	33.19413
986.201	52.16483
986.371	-25.81353
986.542	3.68794
986.712	-6.84884
986.882	-30.02763
987.053	-8.95613
987.223	43.73317
987.393	7.90283
987.563	-6.84884
987.734	10.01031
987.904	37.40968
988.074	64.813
988.244	33.19413
988.414	18.44046
988.585	24.76332
988.755	69.02924
988.925	-25.81353
989.095	-27.92059
989.265	-8.95613
989.435	-21.59933
989.605	1.58054
989.775	24.76332
989.945	58.48881
990.115	45.84105
990.285	-2.6342
990.455	18.44046
990.625	-0.52684
990.795	7.90283
990.965	41.62532
991.134	62.70491
991.304	52.16483
991.474	20.54805
991.644	3.68794
991.814	-17.38502
991.984	-6.84884
992.153	35.30189
992.323	14.22533
992.493	-13.17063
992.662	58.48881
992.832	-40.56246
993.002	-27.92059
993.171	41.62532
993.341	35.30189
993.511	71.13739
993.68	-17.38502
993.85	28.97868
994.019	41.62532
994.189	-21.59933
994.358	66.92111
994.528	16.33288
994.697	-42.66935
994.867	52.16483
995.036	88.00344
995.206	-25.81353
995.375	37.40968
995.544	58.48881
995.714	-0.52684
995.883	98.54544
996.052	-27.92059
996.222	14.22533
996.391	43.73317
996.56	20.54805
996.73	-11.06339
996.899	7.90283
997.068	-17.38502
997.237	1.58054
997.406	50.05688
997.576	-21.59933
997.745	-57.41689
997.914	-25.81353
998.083	-32.13465
998.252	24.76332
998.421	-34.24164
998.59	-34.24164
998.759	5.79537
998.928	-25.81353
999.097	-2.6342
999.266	3.68794
999.435	50.05688
999.604	12.11781
999.773	37.40968
999.942	37.40968
1000.111	-34.24164
1000.28	64.813
1000.448	26.87099
1000.617	1.58054
1000.786	-74.26969
1000.955	-17.38502
1001.124	12.11781
1001.292	-23.70644
1001.461	-15.27784
1001.63	-13.17063
1001.798	-53.20343
1001.967	50.05688
1002.136	-34.24164
1002.304	20.54805
1002.473	41.62532
1002.642	3.68794
1002.81	7.90283
1002.979	-2.6342
1003.147	24.76332
1003.316	-17.38502
1003.484	-8.95613
1003.653	-74.26969
1003.821	7.90283
1003.99	69.02924
1004.158	-8.95613
1004.327	-38.45555
1004.495	-27.92059
1004.663	-42.66935
1004.832	-23.70644
1005	33.19413
1005.168	-30.02763
1005.337	-13.17063
1005.505	10.01031
1005.673	12.11781
1005.842	69.02924
1006.01	12.11781
1006.178	24.76332
1006.346	16.33288
1006.514	47.94895
1006.683	-36.3486
1006.851	-32.13465
1007.019	24.76332
1007.187	10.01031
1007.355	16.33288
1007.523	-59.52357
1007.691	-23.70644
1007.859	-32.13465
1008.027	10.01031
1008.195	-8.95613
1008.363	3.68794
1008.531	-8.95613
1008.699	102.7624
1008.867	18.44046
1009.035	-30.02763
1009.203	-13.17063
1009.37	35.30189
1009.538	-17.38502
1009.706	3.68794
1009.874	71.13739
1010.042	-6.84884
1010.209	-25.81353
1010.377	-0.52684
1010.545	56.38079
1010.713	-6.84884
1010.88	5.79537
1011.048	-21.59933
1011.216	22.65567
1011.383	-0.52684
1011.551	-17.38502
1011.718	24.76332
1011.886	-23.70644
1012.054	-13.17063
1012.221	20.54805
1012.389	66.92111
1012.556	-17.38502
1012.724	-27.92059
1012.891	-51.09666
1013.058	-23.70644
1013.226	-51.09666
1013.393	41.62532
1013.561	1.58054
1013.728	-46.88306
1013.895	24.76332
1014.063	10.01031
1014.23	-46.88306
1014.397	1.58054
1014.565	-17.38502
1014.732	45.84105
1014.899	7.90283
1015.066	22.65567
1015.233	24.76332
1015.401	-80.58907
1015.568	-15.27784
1015.735	-17.38502
1015.902	-93.22713
1016.069	-51.09666
1016.236	7.90283
1016.403	-80.58907
1016.57	-32.13465
1016.737	-13.17063
1016.904	33.19413
1017.071	-23.70644
1017.238	-36.3486
1017.405	-34.24164
1017.572	-25.81353
1017.739	18.44046
1017.906	-11.06339
1018.073	-8.95613
1018.24	-38.45555
1018.407	3.68794
1018.573	-8.95613
1018.74	31.08639
1018.907	7.90283
1019.074	-34.24164
1019.241	41.62532
1019.407	-6.84884
1019.574	-21.59933
1019.741	26.87099
1019.907	10.01031
1020.074	41.62532
1020.241	7.90283
1020.407	14.22533
1020.574	-15.27784
1020.74	-4.74153
1020.907	-46.88306
1021.073	3.68794
1021.24	-0.52684
1021.406	58.48881
1021.573	3.68794
1021.739	-107.97035
1021.906	-4.74153
1022.072	-4.74153
1022.239	-46.88306
1022.405	5.79537
1022.571	-59.52357
1022.738	-19.49219
1022.904	-13.17063
1023.07	5.79537
1023.237	43.73317
1023.403	-0.52684
1023.569	-38.45555
1023.735	1.58054
1023.902	20.54805
1024.068	-4.74153
1024.234	-8.95613
1024.4	20.54805
1024.566	41.62532
1024.732	20.54805
1024.898	-32.13465
1025.065	-48.98987
1025.231	-40.56246
1025.397	-6.84884
1025.563	14.22533
1025.729	56.38079
1025.895	33.19413
1026.061	-59.52357
1026.227	-46.88306
1026.392	24.76332
1026.558	5.79537
1026.724	128.06598
1026.89	7.90283
1027.056	-19.49219
1027.222	35.30189
1027.388	-17.38502
1027.553	-93.22713
1027.719	28.97868
1027.885	-44.77622
1028.051	16.33288
1028.216	-25.81353
1028.382	-0.52684
1028.548	33.19413
1028.713	-0.52684
1028.879	7.90283
1029.045	26.87099
1029.21	7.90283
1029.376	-23.70644
1029.541	66.92111
1029.707	-8.95613
1029.873	-57.41689
1030.038	12.11781
1030.204	33.19413
1030.369	33.19413
1030.534	62.70491
1030.7	-8.95613
1030.865	-51.09666
1031.031	22.65567
1031.196	-17.38502
1031.361	24.76332
1031.527	-48.98987
1031.692	35.30189
1031.857	-13.17063
1032.023	-19.49219
1032.188	92.22017
1032.353	-17.38502
1032.518	-36.3486
1032.684	5.79537
1032.849	-59.52357
1033.014	-15.27784
1033.179	14.22533
1033.344	-63.73688
1033.509	22.65567
1033.674	45.84105
1033.839	1.58054
1034.004	-11.06339
1034.17	-67.95008
1034.335	39.51749
1034.5	-65.84349
1034.664	-57.41689
1034.829	-23.70644
1034.994	-2.6342
1035.159	12.11781
1035.324	-67.95008
1035.489	-17.38502
1035.654	-40.56246
1035.819	24.76332
1035.984	-17.38502
1036.148	-27.92059
1036.313	24.76332
1036.478	24.76332
1036.643	-17.38502
1036.807	71.13739
1036.972	24.76332
1037.137	10.01031
1037.301	16.33288
1037.466	-34.24164
1037.631	-27.92059
1037.795	24.76332
1037.96	-25.81353
1038.124	60.59685
1038.289	58.48881
1038.454	-11.06339
1038.618	22.65567
1038.783	-11.06339
1038.947	1.58054
1039.111	35.30189
1039.276	-34.24164
1039.44	-42.66935
1039.605	-36.3486
1039.769	-63.73688
1039.933	37.40968
1040.098	-27.92059
1040.262	50.05688
1040.426	-8.95613
1040.591	18.44046
1040.755	-32.13465
1040.919	24.76332
1041.083	33.19413
1041.248	73.24557
1041.412	-25.81353
1041.576	-4.74153
1041.74	20.54805
1041.904	43.73317
1042.068	-25.81353
1042.232	-13.17063
1042.397	7.90283
1042.561	20.54805
1042.725	12.11781
1042.889	14.22533
1043.053	96.437
1043.217	7.90283
1043.381	41.62532
1043.544	-0.52684
1043.708	96.437
1043.872	-4.74153
1044.036	60.59685
1044.2	31.08639
1044.364	45.84105
1044.528	33.19413
1044.691	20.54805
1044.855	-0.52684
1045.019	-21.59933
1045.183	35.30189
1045.346	-42.66935
1045.51	37.40968
1045.674	7.90283
1045.837	5.79537
1046.001	-0.52684
1046.165	-48.98987
1046.328	-51.09666
1046.492	16.33288
1046.655	33.19413
1046.819	1.58054
1046.983	24.76332
1047.146	12.11781
1047.31	-15.27784
1047.473	83.78679
1047.636	33.19413
1047.8	-8.95613
1047.963	56.38079
1048.127	-30.02763
1048.29	-23.70644
