Data from Scatter_Coeff_Baseline_USB4F045381__2__0002.txt Node

Date: Thu Feb 13 19:12:41 EST 2025
User: mmckonesweet
Spectrometer: USB4F04538
Trigger mode: 4
Integration Time (sec): 2.400000E-3
Scans to average: 1
Electric dark correction enabled: true
Nonlinearity correction enabled: true
Boxcar width: 0
XAxis mode: Wavelengths
Number of Pixels in Spectrum: 3648
>>>>>Begin Spectral Data<<<<<
345.52	40.04444
345.736	40.04444
345.952	40.04444
346.168	14.75222
346.384	73.77262
346.6	-25.28676
346.816	4.2148
347.032	6.32224
347.248	40.04444
347.464	14.75222
347.68	8.4297
347.896	27.39791
348.112	-2.10736
348.328	-2.10736
348.544	-29.50088
348.76	10.53718
348.975	-52.67674
349.191	-31.6079
349.407	56.90779
349.623	-6.32202
349.839	18.96735
350.055	6.32224
350.27	-31.6079
350.486	67.44814
350.702	65.34002
350.918	42.15228
351.133	18.96735
351.349	-2.10736
351.565	0
351.781	-2.10736
351.996	18.96735
352.212	31.61332
352.428	-8.42931
352.644	-35.82187
352.859	84.31387
353.075	-6.32202
353.291	16.85977
353.506	-25.28676
353.722	-27.39383
353.938	77.98905
354.153	6.32224
354.369	-2.10736
354.584	-18.9654
354.8	-25.28676
355.016	31.61332
355.231	-4.2147
355.447	27.39791
355.662	-2.10736
355.878	86.42218
356.093	-109.5499
356.309	40.04444
356.524	31.61332
356.74	61.12386
356.955	-10.53658
357.171	23.18258
357.386	4.2148
357.602	14.75222
357.817	-31.6079
358.033	10.53718
358.248	56.90779
358.464	27.39791
358.679	-23.17966
358.895	2.10739
359.11	-71.63655
359.325	16.85977
359.541	-35.82187
359.756	6.32224
359.972	92.74727
360.187	10.53718
360.402	59.01582
360.618	-54.78349
360.833	27.39791
361.048	12.64469
361.264	23.18258
361.479	-29.50088
361.694	2.10739
361.909	-23.17966
362.125	-8.42931
362.34	86.42218
362.555	-2.10736
362.77	33.72107
362.986	14.75222
363.201	10.53718
363.416	56.90779
363.631	-2.10736
363.847	18.96735
364.062	84.31387
364.277	16.85977
364.492	105.39804
364.707	61.12386
364.922	-10.53658
365.138	33.72107
365.353	-23.17966
365.568	10.53718
365.783	-6.32202
365.998	0
366.213	31.61332
366.428	-2.10736
366.643	48.47593
366.858	42.15228
367.073	86.42218
367.288	18.96735
367.503	31.61332
367.718	61.12386
367.933	18.96735
368.148	4.2148
368.363	29.5056
368.578	40.04444
368.793	56.90779
369.008	2.10739
369.223	52.69182
369.438	56.90779
369.653	16.85977
369.868	-8.42931
370.083	56.90779
370.298	56.90779
370.513	23.18258
370.728	-16.85823
370.943	33.72107
371.157	-8.42931
371.372	6.32224
371.587	-4.2147
371.802	18.96735
372.017	-10.53658
372.232	4.2148
372.446	56.90779
372.661	14.75222
372.876	12.64469
373.091	10.53718
373.306	-40.03573
373.52	4.2148
373.735	31.61332
373.95	61.12386
374.165	-16.85823
374.379	8.4297
374.594	-54.78349
374.809	6.32224
375.023	54.79979
375.238	52.69182
375.453	90.63889
375.667	40.04444
375.882	46.36803
376.097	46.36803
376.311	-56.89021
376.526	25.29023
376.741	-42.14263
376.955	6.32224
377.17	6.32224
377.384	-18.9654
377.599	14.75222
377.813	18.96735
378.028	18.96735
378.242	6.32224
378.457	-42.14263
378.672	21.07496
378.886	31.61332
379.101	48.47593
379.315	67.44814
379.53	73.77262
379.744	-40.03573
379.958	10.53718
380.173	-44.2495
380.387	35.82884
380.602	0
380.816	-16.85823
381.031	75.88082
381.245	18.96735
381.459	40.04444
381.674	33.72107
381.888	18.96735
382.103	16.85977
382.317	4.2148
382.531	59.01582
382.746	73.77262
382.96	-23.17966
383.174	2.10739
383.388	-6.32202
383.603	-35.82187
383.817	44.26014
384.031	73.77262
384.246	14.75222
384.46	75.88082
384.674	16.85977
384.888	54.79979
385.103	149.68192
385.317	56.90779
385.531	84.31387
385.745	63.23193
385.959	27.39791
386.174	-8.42931
386.388	65.34002
386.602	18.96735
386.816	23.18258
387.03	14.75222
387.244	-6.32202
387.458	99.07256
387.672	63.23193
387.887	27.39791
388.101	73.77262
388.315	10.53718
388.529	-16.85823
388.743	46.36803
388.957	14.75222
389.171	132.81075
389.385	-16.85823
389.599	33.72107
389.813	12.64469
390.027	6.32224
390.241	-27.39383
390.455	65.34002
390.669	122.26697
390.883	-8.42931
391.097	23.18258
391.311	-16.85823
391.525	56.90779
391.738	29.5056
391.952	-23.17966
392.166	-27.39383
392.38	63.23193
392.594	118.04961
392.808	27.39791
393.022	27.39791
393.236	-23.17966
393.449	56.90779
393.663	-16.85823
393.877	56.90779
394.091	-2.10736
394.305	12.64469
394.518	73.77262
394.732	-14.75104
394.946	84.31387
395.16	61.12386
395.373	77.98905
395.587	46.36803
395.801	77.98905
396.015	-2.10736
396.228	31.61332
396.442	2.10739
396.656	75.88082
396.869	69.55627
397.083	-16.85823
397.297	35.82884
397.51	82.20557
397.724	37.93663
397.938	54.79979
398.151	65.34002
398.365	-6.32202
398.578	29.5056
398.792	75.88082
399.005	56.90779
399.219	56.90779
399.433	46.36803
399.646	40.04444
399.86	67.44814
400.073	44.26014
400.287	14.75222
400.5	33.72107
400.714	-16.85823
400.927	-33.71489
401.141	29.5056
401.354	48.47593
401.567	31.61332
401.781	2.10739
401.994	61.12386
402.208	-10.53658
402.421	21.07496
402.635	31.61332
402.848	37.93663
403.061	61.12386
403.275	73.77262
403.488	10.53718
403.701	8.4297
403.915	80.0973
404.128	-6.32202
404.341	54.79979
404.555	88.53052
404.768	-14.75104
404.981	-6.32202
405.195	63.23193
405.408	27.39791
405.621	107.50658
405.834	52.69182
406.048	63.23193
406.261	25.29023
406.474	10.53718
406.687	6.32224
406.9	69.55627
407.114	73.77262
407.327	134.91958
407.54	65.34002
407.753	40.04444
407.966	59.01582
408.179	48.47593
408.392	71.66443
408.605	59.01582
408.819	52.69182
409.032	44.26014
409.245	56.90779
409.458	0
409.671	88.53052
409.884	-2.10736
410.097	77.98905
410.31	65.34002
410.523	48.47593
410.736	40.04444
410.949	37.93663
411.162	120.15828
411.375	90.63889
411.588	73.77262
411.801	65.34002
412.014	63.23193
412.227	-2.10736
412.44	12.64469
412.653	120.15828
412.865	82.20557
413.078	16.85977
413.291	52.69182
413.504	65.34002
413.717	61.12386
413.93	86.42218
414.143	42.15228
414.356	52.69182
414.568	-10.53658
414.781	50.58386
414.994	35.82884
415.207	111.72373
415.42	151.79091
415.632	86.42218
415.845	82.20557
416.058	73.77262
416.271	71.66443
416.483	126.48442
416.696	130.70195
416.909	166.55444
417.121	48.47593
417.334	14.75222
417.547	94.85568
417.759	42.15228
417.972	107.50658
418.185	65.34002
418.397	103.28953
418.61	71.66443
418.823	65.34002
419.035	99.07256
419.248	158.11802
419.46	61.12386
419.673	75.88082
419.885	23.18258
420.098	80.0973
420.311	67.44814
420.523	23.18258
420.736	151.79091
420.948	90.63889
421.161	139.13728
421.373	183.42829
421.586	130.70195
421.798	122.26697
422.01	128.59318
422.223	126.48442
422.435	141.24617
422.648	149.68192
422.86	52.69182
423.073	134.91958
423.285	35.82884
423.497	94.85568
423.71	48.47593
423.922	162.33619
424.134	82.20557
424.347	179.20971
424.559	130.70195
424.771	198.19399
424.984	191.86571
425.196	103.28953
425.408	134.91958
425.621	126.48442
425.833	177.10045
426.045	92.74727
426.257	187.64696
426.47	158.11802
426.682	170.77278
426.894	145.464
427.106	172.88198
427.318	103.28953
427.531	158.11802
427.743	200.30345
427.955	153.89993
428.167	219.28955
428.379	193.97512
428.591	187.64696
428.804	126.48442
429.016	255.15652
429.228	250.93658
429.44	225.6186
429.652	265.70668
429.864	202.41294
430.076	253.04654
430.288	217.1799
430.5	204.52245
430.712	272.03701
430.924	238.27725
431.136	259.37653
431.348	242.49695
431.56	238.27725
431.772	263.59661
431.984	234.05762
432.196	322.68561
432.408	305.80158
432.62	307.91202
432.832	263.59661
433.044	286.80843
433.256	293.13931
433.468	424.01305
433.679	310.02248
433.891	217.1799
434.103	341.68151
434.315	367.01157
434.527	331.12806
434.739	267.81677
434.95	272.03701
435.162	364.90064
435.374	337.46008
435.586	312.13296
435.798	299.47036
436.009	388.12183
436.221	409.23374
436.433	405.01123
436.645	413.45632
436.856	409.23374
437.068	426.12445
437.28	419.79031
437.491	428.23586
437.703	417.67897
437.915	426.12445
438.126	392.34408
438.338	525.37723
438.55	478.91436
438.761	495.80913
438.973	466.24391
439.184	428.23586
439.396	546.49901
439.608	421.90167
439.819	476.80258
440.031	495.80913
440.242	497.92105
440.454	476.80258
440.665	529.60148
440.877	643.67633
441.088	563.39742
441.3	510.59283
441.511	525.37723
441.723	497.92105
441.934	500.03297
442.146	582.40916
442.357	673.25728
442.569	538.05013
442.78	605.64718
442.991	605.64718
443.203	630.9995
443.414	641.5635
443.626	590.85917
443.837	688.04861
444.048	656.3536
444.26	671.14428
444.471	588.74665
444.682	764.12683
444.894	679.59635
445.105	639.45067
445.316	755.67302
445.528	630.9995
445.739	696.50105
445.95	783.14849
446.161	711.29325
446.373	669.03129
446.584	797.94367
446.795	751.44618
447.006	829.64917
447.217	726.08599
447.429	848.67345
447.64	770.4673
447.851	850.78731
448.062	768.3538
448.273	812.73931
448.484	855.01504
448.695	880.38215
448.907	831.76294
449.118	920.54914
449.329	842.33194
449.54	1019.92089
449.751	905.75044
449.962	916.3209
450.173	869.81237
450.384	952.26187
450.595	939.57658
450.806	1112.96198
451.017	969.17598
451.228	977.6332
451.439	1053.75279
451.65	994.54797
451.861	931.11986
452.072	1100.27396
452.283	1081.24227
452.494	1163.71566
452.705	1070.66929
452.915	1244.08014
453.126	1206.01215
453.337	1248.30998
453.548	1161.60087
453.759	1373.09412
453.97	1233.5056
454.181	1347.71381
454.391	1294.83886
454.602	1360.40394
454.813	1387.89937
455.024	1349.82882
455.235	1364.63399
455.445	1368.86405
455.656	1455.58092
455.867	1472.50133
456.078	1430.20029
456.288	1440.77555
456.499	1559.2179
456.71	1535.95263
456.921	1375.20915
457.131	1650.16205
457.342	1392.12945
457.553	1544.41274
457.763	1409.0498
457.974	1840.49304
458.184	1654.39191
458.395	1793.97054
458.606	1688.23045
458.816	1878.55522
459.027	1969.47454
459.237	1984.27433
459.448	1933.53095
459.659	1853.18061
459.869	1984.27433
460.08	1933.53095
460.29	2136.48148
460.501	2172.41361
460.711	2140.70891
460.922	2119.57144
461.132	2341.47234
461.343	2229.47736
461.553	2358.37491
461.764	2246.38392
461.974	2301.32623
462.184	2221.02386
462.395	2440.76557
462.605	2573.82309
462.816	2333.02082
463.026	2474.56218
463.236	2622.38809
463.447	2573.82309
463.657	2537.92315
463.867	2708.94419
464.078	2685.72392
464.288	2814.47067
464.498	2930.50979
464.709	2900.97668
464.919	2881.9896
465.129	3088.67291
465.339	3109.75475
465.55	3170.88306
465.76	2989.56735
465.97	3354.18446
466.18	3227.7833
466.391	3579.44279
466.601	3337.33454
466.811	3440.52272
467.021	3461.5763
467.231	3655.18339
467.441	3419.46735
467.651	3892.7628
467.862	3781.36283
468.072	3789.77231
468.282	3878.0528
468.492	3867.54505
468.702	4155.27336
468.912	4230.81608
469.122	3949.49216
469.332	4291.64988
469.542	4163.66834
469.752	4509.66285
469.962	4209.83474
470.172	4637.42507
470.382	4804.8556
470.592	4898.97144
470.802	4637.42507
471.012	4926.15184
471.222	4915.6983
471.432	4903.15329
471.642	5005.57996
471.852	5055.72794
472.062	5120.48267
472.272	5366.76368
472.482	5358.4205
472.691	5489.78187
472.901	5577.30425
473.111	5354.24878
473.321	5735.57235
473.531	5798.00908
473.741	5793.84729
473.95	5989.34929
474.16	5920.73935
474.37	6130.64646
474.58	5956.08707
474.79	6249.00301
474.999	6414.98919
475.209	6307.11518
475.419	6419.13693
475.628	6711.31905
475.838	6537.30848
476.048	6934.80936
476.258	6897.5794
476.467	7281.93848
476.677	7265.42274
476.886	7471.76884
477.096	7298.45281
477.306	7087.78913
477.515	7314.96574
477.725	7712.91987
477.935	7484.14269
478.144	7638.75061
478.354	7782.94353
478.563	8058.68576
478.773	7908.51379
478.982	8167.64711
479.192	8249.84497
479.401	8430.56974
479.611	8467.51771
479.82	8615.248
480.03	8832.56412
480.239	8947.29028
480.449	8600.88962
480.658	9016.91829
480.868	9313.63721
481.077	9289.09466
481.287	9262.50418
481.496	9471.06225
481.705	9573.23506
481.915	9781.54634
482.124	9297.27577
482.333	9565.0627
482.543	9791.75358
482.752	10034.57681
482.961	10116.15215
483.171	10307.7668
483.38	10112.07392
483.589	10485.00688
483.799	10360.7455
484.008	10808.68143
484.217	10623.47174
484.426	10568.49999
484.636	10672.32796
484.845	11101.56401
485.054	10944.98224
485.263	11048.69954
485.472	11024.29806
485.682	11337.33372
485.891	11442.97922
486.1	11308.88611
486.309	11877.48534
486.518	11780.06137
486.727	11727.2818
486.936	11914.01435
487.146	11980.97732
487.355	12191.95618
487.564	12155.4465
487.773	12605.57439
487.982	12070.24777
488.191	12526.52162
488.4	12502.19576
488.609	12625.84281
488.818	12613.68183
489.027	12698.80414
489.236	12911.5655
489.445	13020.96257
489.654	13093.88584
489.863	13478.66219
490.072	13114.1412
490.281	13324.76994
490.49	13395.64421
490.698	13525.23046
490.907	13395.64421
491.116	13774.23838
491.325	13832.94059
491.534	13924.02549
491.743	13863.30284
491.952	13776.26264
492.16	14053.55932
492.369	14266.05559
492.578	14185.10733
492.787	14533.1654
492.996	14434.01411
493.204	14460.31988
493.413	14642.43067
493.622	15004.60689
493.831	14658.61785
494.039	14573.63441
494.248	14852.85958
494.457	15083.51471
494.665	15190.74809
494.874	15057.21214
495.083	15304.05144
495.291	15455.79837
495.5	15526.61453
495.709	15534.70785
495.917	15575.17463
496.126	15648.01558
496.335	15668.24937
496.543	16105.32615
496.752	15702.64701
496.96	15975.81571
497.169	15902.9686
497.377	15992.00419
497.586	16178.17853
497.794	16166.03632
498.003	16161.98893
498.211	16311.74694
498.42	16008.19276
498.628	16576.8846
498.837	16495.92281
499.045	16902.79297
499.254	16740.84317
499.462	16880.52392
499.671	16740.84317
499.879	16933.16036
500.087	17149.79858
500.296	16981.74941
500.504	16963.52834
500.713	17255.09229
500.921	17267.24207
501.129	17487.98205
501.338	17131.57545
501.546	17575.07315
501.754	17230.79304
501.962	17455.57756
502.171	17508.23527
502.379	18010.62086
502.587	17777.63393
502.795	17957.94151
503.004	17309.76715
503.212	17919.44657
503.42	17765.47934
503.628	18063.30261
503.837	17945.78508
504.045	18190.96468
504.253	18140.3034
504.461	18314.58787
504.669	18492.95414
504.877	18462.54871
505.085	18186.91169
505.294	18934.94534
505.502	18578.09393
505.71	18669.32272
505.918	18833.55461
506.126	18963.33654
506.334	18470.65674
506.542	19251.34939
506.75	18843.69323
506.958	18961.30857
507.166	19435.96449
507.374	18859.91524
507.582	19089.07853
507.79	19131.6721
507.998	19314.23641
508.206	19586.11638
508.414	19257.43506
508.622	19247.2923
508.83	18932.91743
509.037	19567.85345
509.245	19184.40949
509.453	19644.96592
509.661	19539.44511
509.869	19811.3871
510.077	19604.37966
510.285	19953.4763
510.492	20030.61905
510.7	20229.5942
510.908	19963.62631
511.116	19937.23649
511.324	19941.29641
511.531	20343.31241
511.739	20331.12769
511.947	19996.10707
512.155	20130.10158
512.362	20477.35435
512.57	20365.65147
512.778	20702.82959
512.985	20471.26114
513.193	20576.88212
513.401	20674.38844
513.608	20542.35094
513.816	20814.57056
514.024	21094.99378
514.231	20979.15731
514.439	21151.90077
514.646	21088.89679
514.854	21379.56048
515.061	20869.4298
515.269	21113.28496
515.477	21263.69162
515.684	20987.28575
515.892	21292.14942
516.099	21166.12801
516.307	21481.21055
516.514	21894.01104
516.722	21454.78057
516.929	21839.0973
517.136	21399.88969
517.344	21696.74146
517.551	21501.54176
517.759	21501.54176
517.966	21853.33392
518.173	21985.54014
518.381	21743.51342
518.588	21922.48593
518.796	22038.42713
519.003	21983.50608
519.21	22361.90647
519.418	22372.08029
519.625	22388.35859
519.832	22284.58844
520.039	22207.27571
520.247	22459.57887
520.454	22508.41819
520.661	22990.81508
520.868	22614.24377
521.076	22673.26604
521.283	22661.05429
521.49	22626.45503
521.697	22880.88484
521.904	22557.25957
522.112	22606.103
522.319	22772.99999
522.526	22494.17318
522.733	23349.17319
522.94	23310.48197
523.147	23310.48197
523.354	23420.44946
523.561	23988.75653
523.768	23483.58308
523.975	23603.74882
524.183	23251.42919
524.39	23563.01348
524.597	23768.73928
524.804	23937.82362
525.011	23850.22321
525.218	23713.74028
525.425	23567.08696
525.632	23683.18622
525.838	24102.85262
526.045	24176.2047
526.252	24375.90313
526.459	24510.40815
526.666	24245.48492
526.873	24210.84442
527.08	24520.59838
527.287	24640.84785
527.494	24194.54328
527.701	24824.29579
527.907	24673.45938
528.114	24850.79543
528.321	24701.99498
528.528	24848.75699
528.735	25064.84548
528.941	24995.53126
529.148	24500.21798
529.355	24865.06464
529.562	24793.71977
529.768	25123.9685
529.975	24918.06556
530.182	24934.37385
530.388	24993.49265
530.595	25386.98626
530.802	24962.91372
531.008	25295.23182
531.215	25486.90146
531.422	25297.27076
531.628	25480.78406
531.835	25462.43197
532.042	25772.4
532.248	25896.8076
532.455	25698.98243
532.661	25937.59848
532.868	26115.04718
533.074	26280.26991
533.281	26178.27925
533.487	26761.72045
533.694	26261.91128
533.9	26875.97542
534.107	26098.7295
534.313	26476.10359
534.52	26390.42451
534.726	26396.54435
534.933	26461.82355
535.139	26710.71525
535.345	26863.7336
535.552	26839.25011
535.758	26867.8142
535.965	26808.64605
536.171	26973.91185
536.377	26971.87148
536.584	26943.30637
536.79	27257.5374
536.996	27557.5143
537.203	27171.83485
537.409	27224.88854
537.615	27520.78097
537.821	27384.05492
538.028	27851.395
538.234	27447.31553
538.44	27606.49269
538.646	27530.98464
538.853	27806.49497
539.059	27279.9837
539.265	27553.4328
539.471	27539.14759
539.677	27573.84035
539.883	28067.7393
540.09	27843.23131
540.296	28004.46748
540.502	28500.4653
540.708	28282.05503
540.914	28545.37359
541.12	28455.55751
541.326	28537.20841
541.532	28384.11437
541.738	28537.20841
541.944	28182.03952
542.15	28890.36792
542.356	28543.3323
542.562	29259.89184
542.768	28696.43252
542.974	28914.86569
543.18	28502.50657
543.386	29104.72848
543.592	29245.60023
543.798	28863.82884
544.004	29104.72848
544.21	29404.85253
544.415	28816.87551
544.621	29353.80943
544.827	29272.14184
545.033	29462.02158
545.239	29421.18646
545.445	29947.99251
545.651	29457.93805
545.856	29629.45002
546.062	29592.69682
546.268	29794.84374
546.474	29513.06608
546.679	29151.68518
546.885	29410.97774
547.091	29672.32919
547.297	29337.47578
547.502	29494.68998
547.708	29627.40816
547.914	29843.85067
548.119	30013.3379
548.325	30286.98455
548.531	29925.5303
548.736	30074.60027
548.942	30092.97918
549.147	29741.75362
549.353	29776.46631
549.559	30070.51608
549.764	29901.02622
549.97	29766.25666
550.175	30438.11202
550.381	30856.81229
550.586	30440.15433
550.792	30501.42418
550.997	30875.19554
551.203	30752.64265
551.408	30793.49306
551.614	30950.7723
551.819	30852.72714
552.025	31046.77802
552.23	31242.88492
552.435	31224.49931
552.641	31649.44449
552.846	31271.48501
553.052	31373.63071
553.257	31406.31817
553.462	31381.80254
553.668	31441.04906
553.873	31336.8578
554.078	31657.61722
554.283	31631.05594
554.489	31878.29183
554.694	31545.24457
554.899	31702.56775
555.105	31569.7618
555.31	31955.94172
555.515	31788.3848
555.72	31982.50679
555.925	31878.29183
556.131	32493.44063
556.336	32037.68145
556.541	32452.56098
556.746	32092.85755
556.951	31925.29012
557.156	31992.72422
557.361	31890.55216
557.567	32941.1349
557.772	32015.20272
557.977	31890.55216
558.182	32381.02375
558.387	32374.89211
558.592	32327.88355
558.797	32389.1993
559.002	32425.98969
559.207	32248.17598
559.412	32352.40961
559.617	32297.22641
559.822	32622.21752
560.027	32360.58504
560.232	32505.7047
560.437	32331.97121
560.642	32975.89244
560.847	32908.4226
561.051	33172.1849
561.256	32935.00129
561.461	33411.45136
561.666	33262.1608
561.871	33276.47566
562.076	33239.66631
562.281	32800.06781
562.485	32554.76181
562.69	33208.99256
562.895	33110.84081
563.1	33748.94897
563.305	33080.16969
563.509	33364.41291
563.714	33611.8941
563.919	33411.45136
564.123	33147.64696
564.328	33468.71769
564.533	33658.94115
564.737	32528.18905
564.942	32922.73415
565.147	33311.24091
565.351	33233.53151
565.556	32957.49129
565.761	33129.24377
565.965	33151.73659
566.17	33253.98095
566.374	33456.44614
566.579	34096.7681
566.784	33763.26898
566.988	33665.07784
567.193	34166.34425
567.397	33716.21812
567.602	33855.33012
567.806	33575.07585
568.011	34178.62283
568.215	34434.45785
568.42	34184.76218
568.624	34076.30534
568.828	34131.55564
569.033	34098.8144
569.237	34299.36947
569.442	34446.73946
569.646	33775.54341
569.85	34235.92468
570.055	34651.45454
570.259	34399.66072
570.463	34395.56702
570.668	34008.78077
570.872	33957.62837
571.076	34213.41289
571.281	34737.4473
571.485	34594.13017
571.689	34274.80976
571.893	34518.38508
572.098	34950.41476
572.302	34966.79887
572.506	35317.08081
572.71	34575.70517
572.914	34651.45454
573.119	34817.30451
573.323	35099.93068
573.527	34686.26023
573.731	35228.98506
573.935	35409.28382
574.139	35319.12965
574.343	34745.63748
574.547	35772.05028
574.751	35685.95508
574.955	35292.49504
575.159	35257.66641
575.364	35243.32562
575.568	35364.20553
575.772	35587.57217
575.976	35614.21633
576.18	35688.00486
576.383	35493.29991
576.587	35690.05464
576.791	35589.62169
576.995	35800.75082
577.199	35726.9516
577.403	35749.50061
577.607	35776.15029
577.811	36387.30761
578.015	36130.88626
578.219	36198.57234
578.422	35571.1762
578.626	36407.82545
578.83	36163.70294
579.034	35895.06021
579.238	35636.7621
579.442	35977.07804
579.645	36032.44524
579.849	36225.23833
580.053	36535.05009
580.257	36329.86096
580.46	36212.93082
580.664	36432.44768
580.868	36639.72102
581.071	36239.59737
581.275	36713.61659
581.479	37255.78732
581.682	36738.25035
581.886	37019.55472
582.09	37163.3372
582.293	36693.08919
582.497	36762.88506
582.7	36865.54011
582.904	37202.3699
583.107	37190.0435
583.311	36834.74183
583.515	37305.10008
583.718	36855.27385
583.922	37446.89802
584.125	37352.36212
584.329	37179.7717
584.532	37247.56894
584.735	37103.76595
584.939	37068.84766
585.142	37300.99052
585.346	36914.82057
585.549	37085.27954
585.753	36736.1975
585.956	37732.65882
586.159	37718.26439
586.363	37775.84441
586.566	37977.42397
586.769	37640.12995
586.973	37177.71736
587.176	37387.29746
587.379	37488.00554
587.582	37718.26439
587.786	37677.13959
587.989	38489.96086
588.192	38368.46825
588.395	38121.4575
588.599	38010.34234
588.802	38084.41642
589.005	38080.30091
589.208	38576.46586
589.411	38454.95138
589.615	38016.51477
589.818	38351.99702
590.021	38323.1737
590.224	38325.23245
590.427	38004.16999
590.63	38185.25686
590.833	37948.62212
591.036	37993.8829
591.239	38426.12195
591.442	37983.59601
591.645	38201.72253
591.848	38331.40876
592.051	38541.45004
592.254	38745.40229
592.457	38928.82989
592.66	38988.61441
592.863	39545.6188
593.066	38753.64465
593.269	38473.48549
593.472	38949.44435
593.675	39099.95856
593.878	38817.52798
594.081	39137.07948
594.284	38941.19845
594.486	39273.21633
594.689	39537.36162
594.892	39130.89244
595.095	39675.69091
595.298	39778.95172
595.5	39578.64916
595.703	39853.31557
595.906	39580.71364
596.109	39731.44854
596.311	39686.01583
596.514	39048.40689
596.717	39531.16884
596.92	39828.52612
597.122	39514.6552
597.325	39692.2109
597.528	39688.08084
597.73	39923.56056
597.933	39698.40607
598.136	40039.28482
598.338	39642.65288
598.541	39803.73817
598.743	40155.04258
598.946	39822.32899
599.148	39880.17251
599.351	39714.92697
599.554	39950.42215
599.756	40045.48528
599.959	39991.75118
600.161	40095.09239
600.363	40413.55329
600.566	40403.20956
600.768	40779.90174
600.971	40494.24388
601.173	40194.32521
601.376	40583.23013
601.578	40355.63198
601.78	40695.00983
601.983	40316.33317
602.185	40035.15124
602.388	40848.24337
602.59	40057.88648
602.792	40268.76622
602.995	40303.92384
603.197	40425.96612
603.399	40709.50221
603.601	40527.35262
603.804	40521.14451
604.006	41351.87772
604.208	40889.66864
604.41	40842.02997
604.613	41250.26562
604.815	40581.16045
605.017	40676.37758
605.219	40566.67298
605.421	40330.81122
605.623	40966.31762
605.826	41119.66351
606.028	40434.24157
606.23	40695.00983
606.432	40341.15301
606.634	40813.03551
606.836	40858.59925
607.038	41397.50885
607.24	40545.97755
607.442	41088.57469
607.644	40995.32409
607.846	41092.71972
608.048	40850.31452
608.25	41167.3382
608.452	41795.99388
608.654	41134.17254
608.856	40871.0267
609.058	41594.61958
609.26	41538.58748
609.462	41233.67862
609.664	41731.62454
609.866	40848.24337
610.067	40649.46597
610.269	41049.19932
610.471	40813.03551
610.673	41582.16723
610.875	41482.56425
611.077	41049.19932
611.278	40877.24058
611.48	41076.13991
611.682	41295.88383
611.884	41424.47543
612.085	40784.0433
612.287	41167.3382
612.489	40728.1361
612.69	40819.24842
612.892	41447.29491
613.094	41501.23768
613.295	40759.19462
613.497	40817.17744
613.699	41266.85339
613.9	41121.7362
614.102	41250.26562
614.304	41766.92238
614.505	41250.26562
614.707	41304.17867
614.908	40850.31452
615.11	41339.43388
615.311	41142.46367
615.513	40914.52603
615.714	41432.77326
615.916	41899.84052
616.117	41617.45003
616.319	41627.82799
616.52	41341.50782
616.722	41036.76587
616.923	41322.84276
617.124	41812.60725
617.326	41192.21443
617.527	41310.39992
617.729	41503.31256
617.93	41190.14135
618.131	41011.90024
618.333	40568.74258
618.534	40465.27608
618.735	41138.31808
618.937	40982.89246
619.138	41142.46367
619.339	41121.7362
619.54	41156.9736
619.742	40808.89363
619.943	40902.09713
620.144	41119.66351
620.345	41409.95471
620.546	41569.71533
620.748	41933.07803
620.949	41356.02576
621.15	41582.16723
621.351	41324.91661
621.552	41706.71056
621.753	41372.61842
621.954	41895.68606
622.155	41206.72636
622.356	41414.10343
622.558	41825.06781
622.759	42063.98191
622.96	41488.78862
623.161	41297.95752
623.362	41360.17386
623.563	41912.30421
623.764	41119.66351
623.965	41690.10223
624.166	41810.53054
624.366	41422.40101
624.567	41316.62129
624.768	41908.1496
624.969	41509.53729
625.17	41246.1188
625.371	41320.76892
625.572	41175.63009
625.773	41148.68214
625.973	41933.07803
626.174	41989.17359
626.375	41702.5584
626.576	41366.39608
626.777	41690.10223
626.977	41604.99687
627.178	42377.94015
627.379	41540.66258
627.58	41822.99102
627.78	42005.79625
627.981	41465.96648
628.182	41652.73636
628.382	41295.88383
628.583	42438.27014
628.784	42078.52986
628.984	41590.46875
629.185	42211.56851
629.386	41669.34292
629.586	41866.60621
629.787	41868.68326
629.987	42032.80979
630.188	41806.37714
630.388	41627.82799
630.589	41061.63319
630.79	42153.35771
630.99	41754.46391
631.191	42315.54119
631.391	42012.02995
631.591	42109.70614
631.792	42188.69879
631.992	42465.31813
632.193	41800.14715
632.393	41586.31797
632.594	42028.65372
632.794	41835.45194
632.994	42246.91564
633.195	41750.31119
633.395	41536.51239
633.595	41059.56085
633.796	40837.88777
633.996	41468.04116
634.196	42097.23529
634.397	42246.91564
634.597	41883.22297
634.797	42172.06724
634.997	42082.68654
635.198	41918.53623
635.398	42130.49191
635.598	41945.54292
635.798	42028.65372
635.998	41980.86256
636.199	41804.30047
636.399	41937.23294
636.599	42057.74726
636.799	42199.09393
636.999	42346.73923
637.199	41675.57058
637.399	42531.9071
637.599	42045.2783
637.799	41598.77046
637.999	42282.26646
638.199	42238.59834
638.399	41800.14715
638.599	41922.69096
638.799	42423.70674
638.999	41897.76328
639.199	42167.90948
639.399	42781.73422
639.599	42719.25983
639.799	42043.20018
639.999	42473.64103
640.199	42273.94829
640.399	42034.88784
640.599	40918.66909
640.799	42398.74237
640.998	42521.5017
641.198	42713.01304
641.398	42186.61981
641.598	42538.15049
641.798	42394.58183
641.997	43160.9998
642.197	42577.6947
642.397	42935.88827
642.597	42937.97193
642.796	42456.99544
642.996	42536.06935
643.196	42411.22432
643.395	42421.6263
643.595	42800.47884
643.795	42078.52986
643.994	42738.00091
644.194	42656.7972
644.394	43181.8513
644.593	42506.93468
644.793	43098.45328
644.992	42546.4752
645.192	42738.00091
645.392	42660.96101
645.591	43012.99239
645.791	42638.0607
645.99	43019.24487
646.19	42750.49555
646.389	42796.31328
646.589	42992.15165
646.788	41962.16347
646.987	42070.21667
647.187	42563.12524
647.386	42423.70674
647.586	42652.63344
647.785	42919.21949
647.984	43135.97975
648.184	42856.71908
648.383	42596.42781
648.582	42388.3411
648.782	42338.41947
648.981	42350.89919
649.18	42257.31256
649.38	42473.64103
649.579	43281.95712
649.778	43177.68089
649.977	43584.54808
650.177	43081.77623
650.376	43665.98308
650.575	42779.65155
650.774	42825.47332
650.973	43031.75018
651.173	42879.63452
651.372	42444.51179
651.571	43021.32905
651.77	43265.27068
651.969	43501.04639
652.168	42794.23052
652.367	43119.30078
652.566	43008.82413
652.765	43530.26952
652.964	43150.57454
653.163	43517.745
653.362	43138.06468
653.561	43386.26685
653.76	43138.06468
653.959	42962.97684
654.158	43448.86882
654.357	42752.57804
654.556	42698.43765
654.755	42792.14777
654.954	42892.13453
655.153	42748.41308
655.352	43094.28393
655.551	43054.67784
655.749	42785.8996
655.948	42967.14452
656.147	43006.74003
656.346	42952.5579
656.545	43186.02176
656.743	43254.84209
656.942	43309.07442
657.141	43357.05674
657.34	43354.97041
657.538	43382.09382
657.737	43421.73981
657.936	44069.28692
658.135	43956.39413
658.333	44033.74228
658.532	43630.48324
658.731	42946.30669
658.929	43154.7446
659.128	43152.65957
659.326	43246.49945
659.525	43473.913
659.724	43342.45268
659.922	43277.78543
660.121	43058.84668
660.319	43146.40454
660.518	42775.48625
660.716	43296.55847
660.915	42927.55378
661.113	43578.2847
661.312	42860.88541
661.51	43219.38737
661.709	42894.21791
661.907	43171.42538
662.105	43138.06468
662.304	43196.44815
662.502	43215.21649
662.701	43327.84927
662.899	43115.13118
663.097	43213.13106
663.296	42929.63738
663.494	43881.15445
663.692	43304.90238
663.891	43225.64381
664.089	42967.14452
664.287	43144.31955
664.485	42738.00091
664.684	43382.09382
664.882	43010.90825
665.08	43655.54154
665.278	43505.22096
665.476	43549.05722
665.675	43655.54154
665.873	43659.71812
666.071	43632.57135
666.269	43720.28456
666.467	43417.56632
666.665	43519.83239
666.863	43131.80993
667.061	43421.73981
667.259	43063.01557
667.457	43090.11465
667.655	42467.39883
667.853	42544.394
668.051	42665.12487
668.249	42862.96859
668.447	42261.47142
668.645	42136.72788
668.843	42971.31224
669.041	42908.80193
669.239	42573.53194
669.437	43129.72504
669.635	43208.96025
669.833	42942.13928
670.031	42575.61331
670.229	42575.61331
670.426	42296.82376
670.624	42115.94174
670.822	41837.5288
671.02	42263.55086
671.218	42794.23052
671.415	43056.76225
671.613	42958.80923
671.811	43163.08489
672.009	42669.28878
672.206	42392.50157
672.404	41995.40699
672.602	42690.10914
672.799	42840.05431
672.997	43553.23241
673.195	43033.83445
673.392	43098.45328
673.59	42215.72681
673.788	42292.66447
673.985	41933.07803
674.183	42556.88138
674.38	41928.92317
674.578	42059.82546
674.775	41472.19055
674.973	41607.07237
675.17	42271.86878
675.368	42467.39883
675.565	42328.02006
675.763	41729.5483
675.96	41692.17823
676.158	42417.46547
676.355	42315.54119
676.553	42748.41308
676.75	42093.07844
676.947	41766.92238
677.145	41546.88797
677.342	41706.71056
677.539	41742.00589
677.737	42438.27014
677.934	42211.56851
678.131	42515.25861
678.329	42184.54083
678.526	42350.89919
678.723	42627.65199
678.92	42887.96781
679.118	41729.5483
679.315	41621.60118
679.512	42020.34174
679.709	42386.26089
679.906	42161.67293
680.104	41895.68606
680.301	41949.69798
680.498	41443.14581
680.695	40974.60495
680.892	41190.14135
681.089	41063.70554
681.286	40966.31762
681.483	40962.17403
681.68	41573.86591
681.877	41771.0753
682.075	41515.76213
682.272	41225.3854
682.469	41688.02624
682.665	41138.31808
682.862	41018.11649
683.059	41544.81283
683.256	40995.32409
683.453	40672.23721
683.65	40966.31762
683.847	41016.0444
684.044	40813.03551
684.241	40589.43925
684.438	40858.59925
684.635	40583.23013
684.831	40674.30739
685.028	40421.82847
685.225	40450.793
685.422	39650.91214
685.619	40113.69665
685.815	39739.70957
686.012	39760.36286
686.209	39646.78249
686.405	40380.45434
686.602	40310.12846
686.799	39816.13195
686.996	40082.69003
687.192	39673.62595
687.389	39650.91214
687.586	39593.10076
687.782	39913.22965
687.979	39783.08269
688.175	39795.47585
688.372	40066.15416
688.568	39289.72065
688.765	39704.60133
688.962	40248.08675
689.158	40322.53798
689.355	40163.31228
689.551	40157.10999
689.748	40560.46423
689.944	40316.33317
690.14	39975.21906
690.337	39958.68762
690.533	40777.83098
690.73	40365.97444
690.926	40082.69003
691.123	39807.86939
691.319	40786.1141
691.515	40481.82884
691.712	39440.35179
691.908	39688.08084
692.104	39308.28877
692.301	39240.20956
692.497	39079.33718
692.693	39289.72065
692.889	39363.9979
693.086	39279.40537
693.282	39236.08389
693.478	39097.89638
693.674	39205.14261
693.87	39512.59104
694.067	39312.41512
694.263	39114.39411
694.459	38972.12134
694.655	39207.20529
694.851	39066.96481
695.047	39145.32899
695.243	39073.15095
695.439	38928.82989
695.635	39250.52391
695.831	38636.20472
696.027	38842.25939
696.224	39209.26799
696.42	39475.43789
696.615	39151.51623
696.811	39102.02076
697.007	39231.95826
697.203	39289.72065
697.399	38965.93659
697.595	38961.81348
697.791	38889.66501
697.987	38566.16682
698.183	38807.22362
698.379	38675.34808
698.575	39337.17408
698.77	38656.80608
698.966	38150.26911
699.162	38207.89729
699.358	38823.71071
699.554	38300.528
699.749	38623.84433
699.945	38586.76513
700.141	38475.54488
700.337	38197.60606
700.532	38718.61561
700.728	38139.97906
700.924	37578.45282
701.119	37243.45979
701.315	37656.57837
701.511	37179.7717
701.706	37516.78262
701.902	38000.05513
702.097	38599.12454
702.293	38473.48549
702.489	37942.45051
702.684	38368.46825
702.88	38277.88333
703.075	38014.45729
703.271	37586.67603
703.466	37897.19423
703.662	37829.31716
703.857	37596.95523
704.053	37274.27911
704.248	37243.45979
704.443	37531.17171
704.639	37816.97681
704.834	37471.56217
705.03	37650.41016
705.225	37726.48973
705.42	38564.10704
705.616	38339.64396
705.811	37596.95523
706.006	37689.4767
706.202	37794.3536
706.397	37775.84441
706.592	38030.9174
706.787	37816.97681
706.983	37278.38848
707.178	37689.4767
707.373	37615.45826
707.568	37323.59346
707.763	36582.25254
707.959	37387.29746
708.154	37701.8141
708.349	37522.94933
708.544	36857.32709
708.739	37202.3699
708.934	37027.76993
709.129	37588.73186
709.324	37469.50678
709.519	37798.46684
709.714	36867.59339
709.909	37282.49788
710.104	36436.55147
710.299	36399.61824
710.494	36487.85101
710.689	36223.18706
710.884	36251.90534
711.079	37033.93141
711.274	36621.24845
711.469	37551.72822
711.664	37025.71611
711.859	37337.97761
712.054	37173.60871
712.249	36354.48036
712.443	36145.24337
712.638	36241.64868
712.833	36610.98615
713.028	37085.27954
713.223	36758.77921
713.417	37066.7937
713.612	36914.82057
713.807	36943.56932
714.002	36134.98826
714.196	36557.62475
714.391	35905.31195
714.586	36141.14131
714.78	36379.10065
714.975	36202.67473
715.17	35753.6005
715.364	36469.38272
715.559	36783.41473
715.754	36506.31981
715.948	36165.75404
716.143	36231.39217
716.337	35874.55717
716.532	36067.30823
716.726	36336.01573
716.921	36836.795
717.115	36660.24671
717.31	36190.36762
717.504	36188.31645
717.699	36050.90191
717.893	35663.40792
718.088	35454.36456
718.282	35280.20242
718.476	35901.21124
718.671	35651.10973
718.865	35893.00988
719.059	35204.40181
719.254	35251.52032
719.448	35741.3009
719.642	35843.80365
719.837	34940.17484
720.031	35429.77476
720.225	34845.97283
720.419	35392.89143
720.614	34614.60278
720.808	35458.46293
721.002	34467.20913
721.196	34702.6398
721.39	34618.69735
721.585	34444.69251
721.779	34727.20967
721.973	34663.73876
722.167	34459.02122
722.361	34590.03569
722.555	34641.2178
722.749	34594.13017
722.943	34035.38089
723.137	33902.38624
723.331	34194.99449
723.525	34276.85638
723.719	34262.53011
723.913	34493.82031
724.107	34583.89401
724.301	34483.58516
724.495	34481.53815
724.689	34237.97123
724.883	33980.13515
725.077	34606.41368
725.271	35028.2419
725.465	34915.59949
725.659	34618.69735
725.853	34567.51639
726.046	34690.3551
726.24	34188.85509
726.434	33892.15649
726.628	34860.30731
726.822	34893.07265
727.015	34446.73946
727.209	33969.90474
727.403	34377.14554
727.596	33851.23836
727.79	34325.97644
727.984	34352.58407
728.177	34551.13902
728.371	34342.35029
728.565	34270.71653
728.758	34446.73946
728.952	34972.94299
729.146	34809.11372
729.339	34295.27614
729.533	34047.65807
729.726	34106.99962
729.92	33984.22734
730.113	34205.2269
730.307	34497.9144
730.5	33783.72642
730.694	33820.55066
730.887	34395.56702
731.081	34332.1166
731.274	34156.11219
731.468	33632.34913
731.661	33564.84873
731.854	34282.99627
732.048	34066.07409
732.241	33693.71615
732.435	33961.72048
732.628	34057.88916
732.821	34057.88916
733.014	34121.32391
733.208	34033.3347
733.401	33689.62492
733.594	33123.10942
733.788	32926.82318
733.981	33346.00699
734.174	33309.19587
734.367	33378.72879
734.56	33689.62492
734.754	34000.59623
734.947	33454.40089
735.14	33826.68814
735.333	33319.42109
735.526	33552.5763
735.719	33587.34848
735.912	33417.58692
736.105	33564.84873
736.298	33673.26015
736.491	33393.04482
736.684	33511.66902
736.877	33722.35509
737.07	33609.84861
737.263	33665.07784
737.456	33438.039
737.649	33409.40617
737.842	33605.75765
738.035	33319.42109
738.228	32538.40929
738.421	33057.67793
738.614	33294.88069
738.807	33654.85003
739	32902.28912
739.192	32961.58042
739.385	33211.03746
739.578	33127.19899
739.771	32986.1154
739.964	32877.75542
740.156	33546.44013
740.349	33031.09718
740.542	33350.09718
740.735	32902.28912
740.927	32894.11118
741.12	32695.80852
741.313	32961.58042
741.505	33094.4828
741.698	33125.1542
741.891	32765.314
742.083	32722.38381
742.276	33241.71125
742.468	33468.71769
742.661	33239.66631
742.854	33789.86372
743.046	33200.813
743.239	33425.76772
743.431	33346.00699
743.624	33301.01575
743.816	33090.39333
744.009	33145.60215
744.201	32616.08508
744.393	32560.89404
744.586	32628.34999
744.778	32223.65123
744.971	32460.73684
745.163	32695.80852
745.355	32401.46268
745.548	32671.27784
745.74	32828.68914
745.932	32685.58736
746.125	32571.11448
746.317	32800.06781
746.509	32139.86057
746.702	31868.07494
746.894	31839.4679
747.086	31915.07302
747.278	31839.4679
747.471	32201.17046
747.663	32201.17046
747.855	32650.83587
748.047	32597.68788
748.239	32513.88079
748.431	32358.54118
748.623	32323.7959
748.815	31800.64464
749.008	31833.33787
749.2	31937.55071
749.392	31819.03452
749.584	30981.41208
749.776	31788.3848
749.968	31216.32796
750.16	31800.64464
750.352	31179.55722
750.544	31134.61586
750.736	31443.09207
750.928	31255.14207
751.12	31441.04906
751.311	30766.94023
751.503	31199.98535
751.695	30791.45053
751.887	30242.05604
752.079	30697.49543
752.271	30476.91611
752.463	30621.92489
752.654	30617.84005
752.846	30969.15613
753.038	30515.72065
753.23	30358.46293
753.421	30029.67443
753.613	29921.44628
753.805	30615.79763
753.997	30452.40821
754.188	30474.87378
754.38	30636.22188
754.572	30515.72065
754.763	30899.70671
754.955	30519.80536
755.146	31101.9317
755.338	30654.60382
755.53	30715.87773
755.721	30850.68456
755.913	30570.86473
756.104	30846.59942
756.296	30807.79084
756.487	30542.27138
756.679	30423.81589
756.87	29821.38908
757.062	30084.81076
757.253	30611.71279
757.445	30485.08545
757.636	30438.11202
757.827	29958.20265
758.019	30078.68446
758.21	29939.82442
758.401	30003.12761
758.593	30264.52023
758.784	29999.0435
758.975	29984.74915
759.167	30162.41146
759.358	29935.74038
759.549	29725.41835
759.74	29647.82675
759.932	29664.16169
760.123	29747.87937
760.314	29361.97628
760.505	29858.14448
760.696	29749.92129
760.888	29623.32446
761.079	29125.14437
761.27	28992.44295
761.461	29031.23215
761.652	29172.10131
761.843	28984.27686
762.034	29317.05881
762.225	28937.32211
762.416	29110.85324
762.607	28918.94867
762.798	28649.48116
762.989	28780.12981
763.18	28671.93609
763.371	28843.41428
763.562	28869.95323
763.753	28429.02134
763.944	28400.44412
764.135	28447.39252
764.326	28561.70401
764.517	28190.20395
764.708	28020.79559
764.899	27800.37228
765.089	27941.19674
765.28	28220.82073
765.471	28377.99074
765.662	27922.82802
765.853	28008.5495
766.043	27888.1318
766.234	27761.5955
766.425	27347.32352
766.615	27420.78674
766.806	27586.08494
766.997	27598.32957
767.187	27110.62018
767.378	27704.45156
767.569	27612.61504
767.759	27624.85976
767.95	27741.18684
768.141	27869.76335
768.331	27524.86244
768.522	27192.24001
768.712	27141.22736
768.903	27302.43015
769.093	26926.98357
769.284	27045.32588
769.474	27214.68583
769.665	27210.60476
769.855	27153.47032
770.046	27657.51259
770.236	27633.02294
770.426	27471.80383
770.617	27639.14534
770.807	27363.64854
770.998	27069.81107
771.188	27157.55132
771.378	26735.19763
771.569	27257.5374
771.759	26998.39647
771.949	26727.03681
772.139	26782.12279
772.33	26567.90572
772.52	26500.58385
772.71	26718.87602
772.9	26539.34472
773.09	26476.10359
773.281	26365.9453
773.471	26412.864
773.661	26086.49131
773.851	25845.82004
774.041	25907.00525
774.231	26013.06352
774.421	26092.6104
774.611	26445.5036
774.802	26002.8654
774.992	26057.93579
775.182	26011.02389
775.372	25658.19597
775.562	25605.17474
775.752	26078.33255
775.942	25723.45468
776.131	25780.55767
776.321	25232.02571
776.511	25354.36197
776.701	25205.52054
776.891	25278.92037
777.081	24966.99088
777.271	24993.49265
777.461	25264.64796
777.651	25166.78288
777.84	25095.42612
778.03	25024.07209
778.22	24975.14523
778.41	25050.57469
778.599	24724.41614
778.789	25109.69725
778.979	25026.11074
779.169	24777.41279
779.358	24622.50415
779.548	24818.18054
779.738	24799.83493
779.927	24897.6804
780.117	25397.18146
780.307	25152.51131
780.496	24867.10311
780.686	24748.87593
780.875	24247.52262
781.065	24314.76824
781.254	24426.85068
781.444	24671.42114
781.633	24502.25601
781.823	24278.08845
782.012	24267.89977
782.202	23888.92971
782.391	24053.95322
782.581	23713.74028
782.77	24188.43039
782.96	24345.33539
783.149	23618.00648
783.338	23687.26005
783.528	23754.48007
783.717	23856.33469
783.906	23907.26473
784.096	23833.92605
784.285	23656.70658
784.474	23424.52251
784.663	23469.32684
784.853	23320.66376
785.042	23563.01348
785.231	23797.25812
785.42	23636.33797
785.61	23530.42608
785.799	23526.35271
785.988	23634.30112
786.177	23188.30678
786.366	23446.92449
786.555	23408.2304
786.744	22946.02749
786.933	23192.3791
787.122	23245.32043
787.312	23292.15496
787.501	23552.82983
787.69	23489.69295
787.879	23503.9494
788.068	22862.56409
788.257	22654.94846
788.445	22396.49783
788.634	22593.89195
788.823	22650.87793
789.012	22943.99173
789.201	22604.06782
789.39	22516.55828
789.579	22378.18463
789.768	22516.55828
789.957	21861.46922
790.145	22734.32665
790.334	22834.0657
790.523	22693.61922
790.712	22854.42163
790.9	22722.11428
791.089	22170.65576
791.278	22569.47024
791.467	22490.10321
791.655	22170.65576
791.844	22142.17441
792.033	21887.90937
792.221	21912.31624
792.41	21955.02958
792.599	21906.21447
792.787	22097.41949
792.976	21977.40391
793.164	22323.24679
793.353	21865.5369
793.541	22182.86228
793.73	22221.51713
793.918	22551.15429
794.107	22231.68968
794.295	21855.36774
794.484	21865.5369
794.672	21381.59338
794.861	21340.93607
795.049	21290.1167
795.238	21210.84351
795.426	21456.81362
795.614	21469.01201
795.803	21454.78057
795.991	21416.15335
796.179	21239.29984
796.368	21438.5163
796.556	21440.54932
796.744	21038.08999
796.932	21275.88772
797.121	20763.77766
797.309	20723.1452
797.497	20863.33418
797.685	20826.76124
797.874	20540.31973
798.062	20747.52447
798.25	20353.46647
798.438	20749.55611
798.626	20788.15793
798.814	20532.19494
799.002	20428.60971
799.19	20501.72757
799.378	20353.46647
799.566	20684.5459
799.755	20727.20837
799.943	20373.77489
800.131	20534.22613
800.318	20973.06102
800.506	20883.65306
800.694	20942.58014
800.882	20792.22136
801.07	20920.22808
801.258	20625.63408
801.446	20964.9327
801.634	20589.06989
801.822	20812.53879
802.01	20221.47198
802.197	20621.57133
802.385	20869.4298
802.573	20743.46122
802.761	20467.19902
802.949	20422.5168
803.136	20059.0416
803.324	20759.71434
803.512	20515.94556
803.699	20560.63201
803.887	20554.53828
804.075	20830.82484
804.262	20725.17678
804.45	20820.66588
804.638	20576.88212
804.825	20656.10528
805.013	20436.73365
805.201	20859.27046
805.388	20483.4476
805.576	20373.77489
805.763	20448.91968
805.951	20225.53308
806.138	19776.88283
806.326	19927.08675
806.513	19866.1905
806.701	19793.11999
806.888	19923.02688
807.075	20645.94811
807.263	20487.50978
807.45	20780.0311
807.638	20036.70953
807.825	20310.82015
808.012	20081.37418
808.2	20394.08373
808.387	20485.47869
808.574	20385.96014
808.761	20503.7587
808.949	20422.5168
809.136	20323.00462
809.323	20790.18964
809.51	20845.04755
809.698	20410.3311
809.885	20398.14554
810.072	20641.88527
810.259	20320.97387
810.446	19892.57841
810.633	20004.22743
810.82	19965.65633
811.008	19898.66802
811.195	20613.44587
811.382	20223.50253
811.569	20670.32549
811.756	20550.47582
811.943	20971.02894
812.13	20930.38805
812.317	20926.32405
812.504	20786.12621
812.691	21265.72429
812.878	21038.08999
813.064	20603.28914
813.251	20834.88845
813.438	20534.22613
813.625	20369.71317
813.812	20706.89268
813.999	20916.16413
814.186	20800.34829
814.372	20629.69685
814.559	20743.46122
814.746	20320.97387
814.933	20434.70266
815.12	20452.98173
815.306	20432.67167
815.493	20156.4966
815.68	20440.79565
815.866	20036.70953
816.053	20012.34785
816.24	19610.46749
816.426	19778.91246
816.613	20101.67697
816.799	20375.80575
816.986	20016.40809
817.173	20079.34393
817.359	20046.86041
817.546	20361.58978
817.732	20111.82852
817.919	20012.34785
818.105	19851.98192
818.292	19927.08675
818.478	19819.50593
818.665	20239.74708
818.851	20282.3903
819.037	20329.09692
819.224	20219.44143
819.41	20097.61638
819.597	19695.7011
819.783	20000.16724
819.969	20081.37418
820.156	20032.64921
820.342	20335.18925
820.528	20193.04472
820.714	19957.53629
820.901	19880.39928
821.087	19504.95037
821.273	20010.31774
821.459	19825.5951
821.646	19770.79397
821.832	19839.8033
822.018	19748.46846
822.204	19632.78986
822.39	19543.50339
822.576	19105.30444
822.762	19054.59934
822.948	18995.7846
823.134	19180.35267
823.32	19147.89869
823.507	19452.19603
823.693	19425.81992
823.879	19097.19145
824.065	19111.38922
824.25	19348.72452
824.436	19281.7781
824.622	19535.38684
824.808	19111.38922
824.994	18807.19466
825.18	18535.52318
825.366	18799.08404
825.552	18924.80582
825.738	19289.89258
825.923	18705.81646
826.109	18790.97348
826.295	18533.49605
826.481	18855.85971
826.667	18661.21318
826.852	19032.2899
827.038	19119.50232
827.224	18847.74871
827.409	18671.35012
827.595	18947.1129
827.781	18527.41466
827.966	18545.65892
828.152	18499.03533
828.338	18734.20136
828.523	18162.59408
828.709	18764.61461
828.894	18494.9812
829.08	18559.84911
829.266	18259.8677
829.451	18762.58703
829.637	18369.31077
829.822	18689.59687
830.008	18397.68668
830.193	18399.71356
830.378	18278.10746
830.564	18298.3742
830.749	17895.13463
830.935	18124.09227
831.12	18259.8677
831.305	18432.14415
831.491	18227.44222
831.676	17978.20251
831.861	18124.09227
832.047	18067.35516
832.232	18036.96143
832.417	18026.83037
832.602	18034.93521
832.788	17949.83721
832.973	17714.83653
833.158	17980.22863
833.343	17945.78508
833.528	17846.51224
833.714	17485.95674
833.899	17400.89679
834.084	17362.41908
834.269	17842.46047
834.454	17550.76806
834.639	18008.59469
834.824	17619.63369
835.009	17210.54399
835.194	17127.5259
835.379	17352.29355
835.564	16829.91359
835.749	17218.64358
835.934	17425.19907
836.119	17338.11793
836.304	17327.99259
836.489	17524.43807
836.674	17510.2606
836.859	17605.45516
837.044	17408.9975
837.228	17265.2171
837.413	17259.14221
837.598	17431.27471
837.783	17275.34199
837.968	17473.80498
838.152	16823.84045
838.337	17048.56187
838.522	17060.70991
838.707	17004.01991
838.891	16684.16442
839.076	16955.43015
839.261	16904.81744
839.445	17097.15462
839.63	16504.01883
839.815	16540.45137
839.999	16311.74694
840.184	16437.22761
840.368	16113.42076
840.553	16166.03632
840.737	16038.54658
840.922	16451.39526
841.106	16344.12834
841.291	16439.25155
841.475	16437.22761
841.66	16368.41471
841.844	15925.22726
842.029	16016.28708
842.213	15807.86508
842.397	15933.32135
842.582	15484.12475
842.766	16109.37345
842.951	15617.66506
843.135	15579.22132
843.319	15777.51342
843.504	15593.38477
843.688	15668.24937
843.872	15643.96883
844.056	15989.98062
844.241	16024.38142
844.425	15639.92209
844.609	15803.81818
844.793	15739.06834
844.977	16101.27886
845.161	15492.21802
845.346	15666.22598
845.53	15811.91199
845.714	15862.49869
845.898	15571.12794
846.082	15704.67041
846.266	15894.87458
846.45	15550.89453
846.634	15295.95832
846.818	15360.70338
847.002	15097.67762
847.186	15320.23768
847.37	15057.21214
847.554	14958.07131
847.738	14765.85637
847.922	15069.35179
848.106	15000.56032
848.29	14634.33706
848.473	14365.2132
848.657	14429.96705
848.841	14614.10296
849.025	14423.89644
849.209	14624.22002
849.392	14664.68802
849.576	14903.44231
849.76	14846.78963
849.944	14883.20926
850.127	15194.79463
850.311	14767.87972
850.495	15047.09576
850.678	14737.52945
850.862	15289.88849
851.046	14723.36593
851.229	14824.53309
851.413	14717.29584
851.596	14765.85637
851.78	14923.67531
851.964	14472.46092
852.147	14162.846
852.331	14292.36312
852.514	14373.30752
852.698	13928.07358
852.881	13751.97138
853.065	13822.81969
853.248	13887.59219
853.431	14195.22603
853.615	14029.2725
853.798	14373.30752
853.982	14108.20347
854.165	13982.72177
854.348	13812.69873
854.532	14059.63098
854.715	13731.72832
854.898	13660.87513
855.081	13494.86007
855.265	13644.67956
855.448	13673.02167
855.631	13893.66447
855.814	13571.79681
855.997	13468.53839
856.181	13557.62464
856.364	14063.67874
856.547	13620.3858
856.73	13758.04423
856.913	13476.63743
857.096	13557.62464
857.279	13539.40303
857.462	13727.67967
857.645	13466.51362
857.828	13496.88479
858.011	13353.12025
858.194	13768.1656
858.377	13590.01792
858.56	13679.0949
858.743	13347.04525
858.926	13235.66362
859.109	13292.3686
859.292	13047.2967
859.475	13031.09118
859.658	13029.06547
859.841	13235.66362
860.023	13217.43629
860.206	13304.51923
860.389	13434.11676
860.572	13148.57422
860.755	13089.83471
860.937	12921.69549
861.12	13091.86028
861.303	12907.51346
861.486	12629.89642
861.668	12623.816
861.851	12611.65498
862.034	12494.08693
862.216	12597.46685
862.399	12171.67332
862.581	12283.22003
862.764	11983.00636
862.947	12198.0409
863.129	12116.90588
863.312	12179.78655
863.494	12084.44849
863.677	12366.35903
863.859	12100.67743
864.042	12098.64884
864.224	11759.76223
864.406	11922.13154
864.589	11711.04074
864.771	11950.5407
864.954	11542.50581
865.136	11761.79218
865.318	11609.5212
865.501	11603.4293
865.683	11552.6603
865.865	11944.45316
866.048	11658.25339
866.23	11593.27597
866.412	11918.07296
866.594	12072.27646
866.777	11574.99938
866.959	11453.13605
867.141	11384.06483
867.323	11396.25469
867.505	11400.31789
867.687	11365.77937
867.869	11058.86635
868.052	11475.48022
868.234	11174.74896
868.416	11207.2712
868.598	11162.55243
868.78	11457.19871
868.962	11290.59732
869.144	11396.25469
869.326	11168.65074
869.508	11536.413
869.69	11166.61798
869.872	11323.11016
870.054	11384.06483
870.236	11260.11416
870.417	10951.08406
870.599	11178.81439
870.781	11028.36509
870.963	10835.13191
871.145	10934.81231
871.327	11430.79071
871.508	10810.71615
871.69	11113.76246
871.872	11044.63274
872.054	11365.77937
872.235	10993.79398
872.417	11127.9935
872.599	10851.40815
872.78	11064.96631
872.962	10729.31804
873.144	10922.60803
873.325	10841.23559
873.507	11288.56518
873.689	10849.37366
873.87	11087.33199
874.052	11056.83301
874.233	11024.29806
874.415	10684.54092
874.596	10942.94828
874.778	10918.53984
874.959	11012.09673
875.141	11170.68349
875.322	10983.6254
875.503	11038.53245
875.685	11245.8879
875.866	10837.16648
876.048	10967.35509
876.229	10639.75793
876.41	10759.84456
876.592	10747.63427
876.773	10829.02813
876.954	10537.9562
877.136	10682.50546
877.317	10963.2874
877.498	11024.29806
877.679	10767.98451
877.86	10934.81231
878.042	10910.40333
878.223	10918.53984
878.404	10529.81071
878.585	10676.399
878.766	10450.38151
878.947	10749.66935
879.128	10554.24657
879.309	10926.67617
879.49	10763.91456
879.672	11054.79966
879.853	10885.9927
880.034	11003.96229
880.215	10930.74426
880.396	11050.73292
880.576	11077.16593
880.757	11195.07568
880.938	10865.64925
881.119	11256.04957
881.3	10721.17718
881.481	10782.22897
881.662	10594.969
881.843	10680.46998
882.023	10682.50546
882.204	10336.29491
882.385	10105.95646
882.566	10413.71528
882.747	10523.70146
882.927	10792.40323
883.108	11079.19917
883.289	11380.00146
883.469	10719.14193
883.65	10912.43747
883.831	10822.92424
884.011	10798.50764
884.192	10971.42274
884.373	11026.33158
884.553	10576.64453
884.734	10662.15017
884.914	10658.07896
885.095	10843.27013
885.275	10413.71528
885.456	10544.06518
885.636	10586.82491
885.817	11274.33992
885.997	10865.64925
886.178	11121.89455
886.358	11164.58521
886.538	11105.6302
886.719	11091.39833
886.899	11304.82201
887.08	11201.17349
887.26	11018.19745
887.44	11069.0329
887.621	11306.85406
887.801	10835.13191
887.981	10926.67617
888.161	10883.95841
888.342	10757.80954
888.522	10497.22672
888.702	10932.77829
888.882	10965.32125
889.062	11195.07568
889.242	11034.46554
889.423	10829.02813
889.603	10908.36917
889.783	11144.25691
889.963	10552.21032
890.143	11191.01042
890.323	10757.80954
890.503	11109.69635
890.683	10938.88032
890.863	11054.79966
891.043	11036.499
891.223	11178.81439
891.403	10963.2874
891.583	11245.8879
891.763	10995.82767
891.943	11292.62945
892.122	11239.79077
892.302	11335.30182
892.482	11018.19745
892.662	11140.19112
892.842	11081.23239
893.022	11107.66328
893.201	11005.99592
893.381	11377.96976
893.561	11127.9935
893.741	11115.7955
893.92	10759.84456
894.1	10881.92411
894.28	10456.49214
894.459	10715.0714
894.639	10694.71805
894.819	11066.99961
894.998	10798.50764
895.178	11233.69356
895.357	10894.12976
895.537	10951.08406
895.716	10999.895
895.896	11270.27547
896.075	11219.46635
896.255	11243.85553
896.434	10959.21967
896.614	11091.39833
896.793	10660.11457
896.973	10757.80954
897.152	10393.34334
897.331	10788.33356
897.511	10417.78952
897.69	10572.57228
897.87	10731.35322
898.049	10747.63427
898.228	10912.43747
898.407	10578.68063
898.587	10584.78886
898.766	10780.19408
898.945	10423.90077
899.124	10474.82333
899.304	10348.52044
899.483	10472.78659
899.662	10379.0822
899.841	10228.28176
900.02	10193.62797
900.199	10181.39627
900.378	10038.65612
900.557	10156.93139
900.737	9981.54063
900.916	9842.78418
901.095	9834.61991
901.274	9975.42044
901.453	9632.47719
901.632	9914.21141
901.811	9806.0431
901.989	9922.37337
902.168	9801.96045
902.347	9761.13072
902.526	9327.95259
902.705	9610.00759
902.884	9818.29066
903.063	10146.7371
903.242	9716.21101
903.42	9975.42044
903.599	9999.90041
903.778	10287.38797
903.957	10075.36731
904.135	9783.58782
904.314	9542.58739
904.493	9848.90722
904.672	9471.06225
904.85	9495.58736
905.029	9066.05528
905.207	9209.31474
905.386	9049.6774
905.565	9313.63721
905.743	9227.72776
905.922	9303.41143
906.1	9133.60234
906.279	9536.45743
906.457	9299.32101
906.636	9509.89261
906.814	8996.44158
906.993	8861.25092
907.171	8928.85592
907.35	9266.59521
907.528	8992.34602
907.707	9152.02102
907.885	8959.57906
908.063	8801.82432
908.242	8467.51771
908.42	8766.98096
908.598	8754.68204
908.777	8914.51709
908.955	8568.06701
909.133	9004.63247
909.311	8678.82412
909.49	8775.17987
909.668	8397.72187
909.846	8861.25092
910.024	8418.25236
910.202	8678.82412
910.38	8334.06504
910.559	8615.248
910.737	8494.1985
910.915	8672.67237
911.093	8332.01129
911.271	8500.35515
911.449	8225.18894
911.627	8116.25727
911.805	7999.04142
911.983	8126.53624
912.161	8044.29041
912.339	8060.74216
912.517	7671.71811
912.695	7822.06387
912.872	7644.93243
913.05	7962.01218
913.228	7943.49508
913.406	8075.13638
913.584	7883.81754
913.762	8138.87034
913.939	7996.98441
914.117	8091.5857
914.295	7772.64745
914.473	7869.41001
914.65	7791.18002
914.828	7754.11319
915.006	7508.88806
915.184	7727.33849
915.361	7638.75061
915.539	7844.70905
915.716	7409.88789
915.894	7570.73796
916.072	7374.81334
916.249	7253.03502
916.427	7118.78357
916.604	7546.00032
916.782	7222.06222
916.959	7383.06674
917.137	6965.82873
917.314	7215.86706
917.492	7017.51641
917.669	6951.35366
917.847	7021.65082
918.024	7217.93214
918.201	6972.032
918.379	6920.33191
918.556	6665.76056
918.733	6694.75361
918.911	6638.83441
919.088	6918.26362
919.265	6858.27314
919.442	7259.22898
919.62	6645.04848
919.797	6823.09742
919.974	6601.54561
920.151	6909.9902
920.328	6678.18671
920.506	6398.39729
920.683	6280.13682
920.86	6541.45348
921.037	6321.64036
921.214	6499.9993
921.391	6224.09218
921.568	6302.96492
921.745	6365.20903
921.922	6240.69978
922.099	6055.85563
922.276	6317.49043
922.453	6159.72356
922.63	6553.88793
922.807	6334.0896
922.984	6080.7893
923.161	5897.86366
923.338	5960.24518
923.514	5902.02309
923.691	5831.29998
923.868	5798.00908
924.045	5993.50664
924.222	5710.59171
924.399	5737.65391
924.575	5398.04725
924.752	5850.02346
924.929	5562.72007
925.105	5637.7121
925.282	5214.44174
925.459	5660.62023
925.635	5623.13271
925.812	5641.87743
925.989	5302.09426
926.165	5577.30425
926.342	5110.03987
926.518	5172.68797
926.695	5364.67792
926.871	5341.73303
927.048	5080.79693
927.224	5133.01327
927.401	4783.9347
927.577	5049.46017
927.754	4597.63917
927.93	4995.13079
928.107	4813.22332
928.283	4930.33309
928.459	4913.60752
928.636	4963.77983
928.812	4806.94756
928.988	4888.51641
929.165	4622.76805
929.341	4924.06117
929.517	4637.42507
929.693	4921.97049
929.87	4490.8057
930.046	4683.48286
930.222	4314.72005
930.398	4520.13828
930.574	4356.65914
930.751	4622.76805
930.927	4241.30594
931.103	4578.7904
931.279	4264.38178
931.455	4511.75798
931.631	4004.10647
931.807	4086.0019
931.983	3884.35721
932.159	4209.83474
932.335	3772.95304
932.511	4004.10647
932.687	3804.48814
932.863	3915.87654
933.039	3798.18148
933.215	3932.685
933.391	3514.20236
933.566	3596.27613
933.742	3611.00433
933.918	3560.50385
934.094	3377.35129
934.27	3453.15509
934.445	3377.35129
934.621	3478.41788
934.797	3059.15568
934.973	3286.77814
935.148	3033.85277
935.324	3063.37261
935.5	2715.27671
935.675	2852.45185
935.851	2812.36047
936.027	2780.70586
936.202	2597.05063
936.378	2808.14004
936.553	2521.02789
936.729	2546.3705
936.904	2578.04638
937.08	2415.41629
937.255	2149.16367
937.431	2098.43321
937.606	1950.44579
937.782	2094.20547
937.957	1774.938
938.133	1984.27433
938.308	1667.08145
938.483	1743.21641
938.659	1567.67796
938.834	1510.57218
939.009	1392.12945
939.185	1472.50133
939.36	1324.4487
939.535	1195.43789
939.71	1041.06565
939.886	1309.64373
940.061	1062.211
940.236	1256.76969
940.411	1102.38862
940.586	1176.40445
940.761	901.52231
940.937	1096.04466
941.112	1038.95115
941.287	931.11986
941.462	905.75044
941.637	935.34821
941.812	664.80534
941.987	783.14849
942.162	732.42589
942.337	880.38215
942.512	757.78646
942.687	859.24281
942.862	685.93553
943.037	821.19417
943.212	745.10599
943.386	749.33277
943.561	677.48332
943.736	635.22506
943.911	844.44577
944.086	652.12779
944.26	673.25728
944.435	637.33786
944.61	614.09776
944.785	770.4673
944.959	626.77399
945.134	677.48332
945.309	624.66125
945.483	707.06685
945.658	535.93795
945.833	666.91831
946.007	576.0718
946.182	664.80534
946.357	616.21043
946.531	675.37029
946.706	738.76589
946.88	645.78918
947.055	565.50978
947.229	529.60148
947.404	538.05013
947.578	675.37029
947.752	652.12779
947.927	669.03129
948.101	557.06041
948.276	664.80534
948.45	641.5635
948.624	816.96672
948.799	650.01491
948.973	800.0573
949.147	635.22506
949.321	759.89991
949.496	624.66125
949.67	685.93553
949.844	652.12779
950.018	732.42589
950.193	592.97171
950.367	698.61419
950.541	666.91831
950.715	624.66125
950.889	662.69239
951.063	770.4673
951.237	542.27454
951.411	808.51194
951.585	639.45067
951.759	732.42589
951.933	778.92139
952.107	812.73931
952.281	719.74618
952.455	753.55959
952.629	778.92139
952.803	800.0573
952.977	751.44618
953.151	996.66234
953.325	814.85301
953.499	899.40826
953.672	664.80534
953.846	977.6332
954.02	702.8405
954.194	762.01336
954.368	690.1617
954.541	918.43502
954.715	745.10599
954.889	922.66327
955.062	753.55959
955.236	895.18018
955.41	840.21813
955.583	895.18018
955.757	751.44618
955.93	825.42165
956.104	626.77399
956.278	825.42165
956.451	677.48332
956.625	806.39826
956.798	675.37029
956.972	905.75044
957.145	679.59635
957.319	825.42165
957.492	666.91831
957.665	791.60282
957.839	736.65255
958.012	791.60282
958.185	656.3536
958.359	683.82246
958.532	690.1617
958.705	821.19417
958.879	831.76294
959.052	838.10432
959.225	673.25728
959.398	816.96672
959.572	690.1617
959.745	726.08599
959.918	614.09776
960.091	692.27481
960.264	611.98509
960.438	816.96672
960.611	666.91831
960.784	711.29325
960.957	715.51969
961.13	800.0573
961.303	635.22506
961.476	740.87925
961.649	683.82246
961.822	762.01336
961.995	715.51969
962.168	702.8405
962.341	611.98509
962.514	785.26206
962.686	633.11228
962.859	745.10599
963.032	747.21937
963.205	787.37564
963.378	728.19928
963.551	713.40647
963.723	650.01491
963.896	664.80534
964.069	576.0718
964.242	605.64718
964.414	565.50978
964.587	548.61126
964.76	550.72353
964.932	639.45067
965.105	508.48083
965.278	584.52165
965.45	565.50978
965.623	563.39742
965.795	584.52165
965.968	563.39742
966.14	495.80913
966.313	605.64718
966.485	605.64718
966.658	662.69239
966.83	514.81688
967.003	614.09776
967.175	495.80913
967.348	552.83581
967.52	478.91436
967.692	554.94811
967.865	495.80913
968.037	538.05013
968.209	474.69081
968.382	533.82578
968.554	474.69081
968.726	535.93795
968.898	478.91436
969.071	409.23374
969.243	438.79314
969.415	474.69081
969.587	440.90465
969.759	571.84695
969.932	445.1277
970.104	578.18424
970.276	457.79724
970.448	592.97171
970.62	529.60148
970.792	468.35561
970.964	445.1277
971.136	535.93795
971.308	506.36885
971.48	470.46733
971.652	377.56649
971.824	453.574
971.996	390.23295
972.168	506.36885
972.339	339.57079
972.511	483.13796
972.683	413.45632
972.855	466.24391
973.027	354.34623
973.199	381.78858
973.37	348.0138
973.542	476.80258
973.714	345.90302
973.886	470.46733
974.057	360.67883
974.229	519.04098
974.401	343.79226
974.572	375.45547
974.744	337.46008
974.915	430.34728
975.087	301.58075
975.259	337.46008
975.43	356.45708
975.602	310.02248
975.773	288.91871
975.945	343.79226
976.116	276.25732
976.288	242.49695
976.459	276.25732
976.63	331.12806
976.802	250.93658
976.973	322.68561
977.145	276.25732
977.316	261.48656
977.487	343.79226
977.659	434.57018
977.83	318.4645
978.001	284.69817
978.172	335.34939
978.344	295.24965
978.515	286.80843
978.686	324.7962
978.857	301.58075
979.028	244.60683
979.2	227.72833
979.371	383.89964
979.542	272.03701
979.713	208.74152
979.884	242.49695
980.055	221.39921
980.226	134.91958
980.397	204.52245
980.568	217.1799
980.739	272.03701
980.91	250.93658
981.081	217.1799
981.252	168.6636
981.423	299.47036
981.594	269.92688
981.765	200.30345
981.936	179.20971
982.106	164.4453
982.277	153.89993
982.448	166.55444
982.619	132.81075
982.79	200.30345
982.96	160.22709
983.131	191.86571
983.302	191.86571
983.472	174.9912
983.643	86.42218
983.814	200.30345
983.984	132.81075
984.155	164.4453
984.326	109.61514
984.496	217.1799
984.667	132.81075
984.837	141.24617
985.008	219.28955
985.178	179.20971
985.349	99.07256
985.519	196.08454
985.69	170.77278
985.86	208.74152
986.031	118.04961
986.201	196.08454
986.371	196.08454
986.542	196.08454
986.712	115.94096
986.882	67.44814
987.053	63.23193
987.223	132.81075
987.393	170.77278
987.563	111.72373
987.734	99.07256
987.904	149.68192
988.074	111.72373
988.244	90.63889
988.414	118.04961
988.585	208.74152
988.755	132.81075
988.925	82.20557
989.095	153.89993
989.265	118.04961
989.435	141.24617
989.605	88.53052
989.775	77.98905
989.945	149.68192
990.115	151.79091
990.285	82.20557
990.455	149.68192
990.625	151.79091
990.795	115.94096
990.965	115.94096
991.134	124.37568
991.304	143.35507
991.474	141.24617
991.644	183.42829
991.814	80.0973
991.984	90.63889
992.153	50.58386
992.323	56.90779
992.493	122.26697
992.662	147.57295
992.832	200.30345
993.002	77.98905
993.171	134.91958
993.341	189.75633
993.511	111.72373
993.68	115.94096
993.85	92.74727
994.019	101.18103
994.189	82.20557
994.358	48.47593
994.528	69.55627
994.697	107.50658
994.867	130.70195
995.036	69.55627
995.206	126.48442
995.375	94.85568
995.544	126.48442
995.714	103.28953
995.883	166.55444
996.052	80.0973
996.222	90.63889
996.391	77.98905
996.56	115.94096
996.73	107.50658
996.899	94.85568
997.068	84.31387
997.237	-56.89021
997.406	96.96411
997.576	10.53718
997.745	-4.2147
997.914	52.69182
998.083	69.55627
998.252	158.11802
998.421	31.61332
998.59	128.59318
998.759	54.79979
998.928	18.96735
999.097	77.98905
999.266	118.04961
999.435	42.15228
999.604	90.63889
999.773	-6.32202
999.942	88.53052
1000.111	82.20557
1000.28	149.68192
1000.448	71.66443
1000.617	73.77262
1000.786	115.94096
1000.955	59.01582
1001.124	124.37568
1001.292	86.42218
1001.461	4.2148
1001.63	124.37568
1001.798	75.88082
1001.967	35.82884
1002.136	101.18103
1002.304	160.22709
1002.473	65.34002
1002.642	90.63889
1002.81	4.2148
1002.979	65.34002
1003.147	92.74727
1003.316	73.77262
1003.484	63.23193
1003.653	126.48442
1003.821	80.0973
1003.99	61.12386
1004.158	90.63889
1004.327	54.79979
1004.495	18.96735
1004.663	52.69182
1004.832	35.82884
1005	90.63889
1005.168	61.12386
1005.337	65.34002
1005.505	-23.17966
1005.673	42.15228
1005.842	56.90779
1006.01	94.85568
1006.178	27.39791
1006.346	37.93663
1006.514	90.63889
1006.683	61.12386
1006.851	27.39791
1007.019	31.61332
1007.187	67.44814
1007.355	73.77262
1007.523	50.58386
1007.691	25.29023
1007.859	59.01582
1008.027	0
1008.195	77.98905
1008.363	-18.9654
1008.531	61.12386
1008.699	27.39791
1008.867	18.96735
1009.035	33.72107
1009.203	-10.53658
1009.37	73.77262
1009.538	-6.32202
1009.706	90.63889
1009.874	52.69182
1010.042	42.15228
1010.209	56.90779
1010.377	107.50658
1010.545	71.66443
1010.713	40.04444
1010.88	61.12386
1011.048	25.29023
1011.216	42.15228
1011.383	56.90779
1011.551	18.96735
1011.718	56.90779
1011.886	14.75222
1012.054	61.12386
1012.221	40.04444
1012.389	103.28953
1012.556	50.58386
1012.724	23.18258
1012.891	-21.07254
1013.058	44.26014
1013.226	59.01582
1013.393	-6.32202
1013.561	40.04444
1013.728	-33.71489
1013.895	73.77262
1014.063	48.47593
1014.23	21.07496
1014.397	31.61332
1014.565	65.34002
1014.732	-48.46317
1014.899	-6.32202
1015.066	33.72107
1015.233	99.07256
1015.401	25.29023
1015.568	56.90779
1015.735	-35.82187
1015.902	-18.9654
1016.069	14.75222
1016.236	16.85977
1016.403	94.85568
1016.57	103.28953
1016.737	31.61332
1016.904	-77.95602
1017.071	65.34002
1017.238	48.47593
1017.405	46.36803
1017.572	40.04444
1017.739	189.75633
1017.906	12.64469
1018.073	-10.53658
1018.24	73.77262
1018.407	40.04444
1018.573	48.47593
1018.74	35.82884
1018.907	31.61332
1019.074	46.36803
1019.241	-6.32202
1019.407	0
1019.574	84.31387
1019.741	-2.10736
1019.907	-14.75104
1020.074	-6.32202
1020.241	75.88082
1020.407	0
1020.574	40.04444
1020.74	71.66443
1020.907	48.47593
1021.073	25.29023
1021.24	-16.85823
1021.406	31.61332
1021.573	120.15828
1021.739	23.18258
1021.906	16.85977
1022.072	16.85977
1022.239	29.5056
1022.405	31.61332
1022.571	-14.75104
1022.738	94.85568
1022.904	-4.2147
1023.07	84.31387
1023.237	75.88082
1023.403	61.12386
1023.569	37.93663
1023.735	61.12386
1023.902	56.90779
1024.068	4.2148
1024.234	16.85977
1024.4	37.93663
1024.566	73.77262
1024.732	23.18258
1024.898	82.20557
1025.065	6.32224
1025.231	40.04444
1025.397	111.72373
1025.563	54.79979
1025.729	-67.42343
1025.895	-18.9654
1026.061	6.32224
1026.227	35.82884
1026.392	-33.71489
1026.558	14.75222
1026.724	75.88082
1026.89	16.85977
1027.056	14.75222
1027.222	61.12386
1027.388	23.18258
1027.553	-2.10736
1027.719	67.44814
1027.885	71.66443
1028.051	-35.82187
1028.216	54.79979
1028.382	6.32224
1028.548	-16.85823
1028.713	118.04961
1028.879	61.12386
1029.045	69.55627
1029.21	77.98905
1029.376	-50.56997
1029.541	-2.10736
1029.707	-12.64382
1029.873	-6.32202
1030.038	23.18258
1030.204	42.15228
1030.369	40.04444
1030.534	-23.17966
1030.7	0
1030.865	10.53718
1031.031	40.04444
1031.196	52.69182
1031.361	14.75222
1031.527	-48.46317
1031.692	-23.17966
1031.857	27.39791
1032.023	-4.2147
1032.188	-18.9654
1032.353	50.58386
1032.518	6.32224
1032.684	31.61332
1032.849	-6.32202
1033.014	35.82884
1033.179	46.36803
1033.344	29.5056
1033.509	23.18258
1033.674	92.74727
1033.839	35.82884
1034.004	73.77262
1034.17	65.34002
1034.335	44.26014
1034.5	-33.71489
1034.664	52.69182
1034.829	50.58386
1034.994	35.82884
1035.159	86.42218
1035.324	18.96735
1035.489	-18.9654
1035.654	42.15228
1035.819	-2.10736
1035.984	31.61332
1036.148	40.04444
1036.313	-18.9654
1036.478	-18.9654
1036.643	10.53718
1036.807	23.18258
1036.972	35.82884
1037.137	29.5056
1037.301	-10.53658
1037.466	33.72107
1037.631	-52.67674
1037.795	0
1037.96	-8.42931
1038.124	48.47593
1038.289	4.2148
1038.454	84.31387
1038.618	107.50658
1038.783	31.61332
1038.947	48.47593
1039.111	99.07256
1039.276	23.18258
1039.44	-14.75104
1039.605	71.66443
1039.769	6.32224
1039.933	25.29023
1040.098	-27.39383
1040.262	-27.39383
1040.426	107.50658
1040.591	16.85977
1040.755	35.82884
1040.919	-69.53
1041.083	2.10739
1041.248	14.75222
1041.412	-27.39383
1041.576	-50.56997
1041.74	0
1041.904	54.79979
1042.068	14.75222
1042.232	31.61332
1042.397	29.5056
1042.561	16.85977
1042.725	18.96735
1042.889	35.82884
1043.053	-31.6079
1043.217	59.01582
1043.381	23.18258
1043.544	37.93663
1043.708	61.12386
1043.872	-23.17966
1044.036	25.29023
1044.2	-48.46317
1044.364	29.5056
1044.528	-12.64382
1044.691	-10.53658
1044.855	-4.2147
1045.019	33.72107
1045.183	6.32224
1045.346	14.75222
1045.51	77.98905
1045.674	-8.42931
1045.837	23.18258
1046.001	-56.89021
1046.165	-6.32202
1046.328	73.77262
1046.492	-80.06246
1046.655	14.75222
1046.819	-18.9654
1046.983	-33.71489
1047.146	-25.28676
1047.31	-18.9654
1047.473	84.31387
1047.636	82.20557
1047.8	101.18103
1047.963	-10.53658
1048.127	16.85977
1048.29	2.10739
