Data from Scatter_Coeff_Baseline_USB4F045381__22__0022.txt Node

Date: Thu Feb 13 19:20:35 EST 2025
User: mmckonesweet
Spectrometer: USB4F04538
Trigger mode: 4
Integration Time (sec): 2.400000E-3
Scans to average: 1
Electric dark correction enabled: true
Nonlinearity correction enabled: true
Boxcar width: 0
XAxis mode: Wavelengths
Number of Pixels in Spectrum: 3648
>>>>>Begin Spectral Data<<<<<
345.52	-12.81942
345.736	-12.81942
345.952	-12.81942
346.168	16.68414
346.384	54.62413
346.6	4.03918
346.816	-40.21131
347.032	-23.35526
347.248	12.46906
347.464	-48.63874
347.68	-27.56942
347.896	37.76098
348.112	-33.89048
348.328	-27.56942
348.544	25.11459
348.76	29.32996
348.975	92.57157
349.191	-52.8523
349.407	-40.21131
349.623	-111.83146
349.839	-31.78348
350.055	4.03918
350.27	6.14661
350.486	25.11459
350.702	12.46906
350.918	-29.67646
351.133	-29.67646
351.349	31.43768
351.565	8.25407
351.781	-21.24814
351.996	-12.81942
352.212	-27.56942
352.428	20.89932
352.644	-21.24814
352.859	10.36155
353.075	-38.10439
353.291	14.57659
353.506	-12.81942
353.722	-8.60492
353.938	-88.66349
354.153	-67.59898
354.369	-4.39031
354.584	12.46906
354.8	6.14661
355.016	16.68414
355.231	-10.71218
355.447	98.89685
355.662	23.00695
355.878	-0.17561
356.093	-46.53192
356.309	37.76098
356.524	-4.39031
356.74	-4.39031
356.955	-4.39031
357.171	25.11459
357.386	4.03918
357.602	79.92161
357.817	18.79172
358.033	-59.17246
358.248	14.57659
358.464	-2.28298
358.679	4.03918
358.895	25.11459
359.11	-10.71218
359.325	-97.08857
359.541	141.07043
359.756	12.46906
359.972	6.14661
360.187	-31.78348
360.402	-33.89048
360.618	56.73213
360.833	-2.28298
361.048	-8.60492
361.264	29.32996
361.479	-31.78348
361.694	-65.49239
361.909	31.43768
362.125	14.57659
362.34	58.84015
362.555	54.62413
362.77	-31.78348
362.986	-52.8523
363.201	-0.17561
363.416	6.14661
363.631	-12.81942
363.847	-17.03383
364.062	46.19237
364.277	48.30027
364.492	8.25407
364.707	16.68414
364.922	-14.92664
365.138	-23.35526
365.353	-52.8523
365.568	-31.78348
365.783	41.97663
365.998	-12.81942
366.213	-4.39031
366.428	20.89932
366.643	-14.92664
366.858	20.89932
367.073	18.79172
367.288	-71.81209
367.503	-27.56942
367.718	29.32996
367.933	-29.67646
368.148	29.32996
368.363	-17.03383
368.578	-46.53192
368.793	12.46906
369.008	-31.78348
369.223	35.65319
369.438	37.76098
369.653	-17.03383
369.868	-67.59898
370.083	4.03918
370.298	4.03918
370.513	-4.39031
370.728	46.19237
370.943	-12.81942
371.157	-21.24814
371.372	-17.03383
371.587	14.57659
371.802	-50.74553
372.017	-38.10439
372.232	16.68414
372.446	6.14661
372.661	41.97663
372.876	8.25407
373.091	-2.28298
373.306	-23.35526
373.52	58.84015
373.735	-46.53192
373.95	-33.89048
374.165	63.05626
374.379	-44.42508
374.594	37.76098
374.809	4.03918
375.023	1.93177
375.238	-21.24814
375.453	-4.39031
375.667	6.14661
375.882	20.89932
376.097	18.79172
376.311	-31.78348
376.526	14.57659
376.741	-76.0251
376.955	-6.49763
377.17	-21.24814
377.384	-25.46235
377.599	-21.24814
377.813	-2.28298
378.028	-19.141
378.242	39.86879
378.457	54.62413
378.672	-0.17561
378.886	16.68414
379.101	101.00532
379.315	25.11459
379.53	-31.78348
379.744	14.57659
379.958	37.76098
380.173	18.79172
380.387	-14.92664
380.602	-25.46235
380.816	-8.60492
381.031	-25.46235
381.245	-25.46235
381.459	84.13817
381.674	20.89932
381.888	-21.24814
382.103	-8.60492
382.317	-61.27913
382.531	16.68414
382.746	-52.8523
382.96	-6.49763
383.174	56.73213
383.388	-35.99745
383.603	29.32996
383.817	-29.67646
384.031	6.14661
384.246	-8.60492
384.46	67.27246
384.674	-38.10439
384.888	8.25407
385.103	-12.81942
385.317	29.32996
385.531	-14.92664
385.745	-42.31821
385.959	20.89932
386.174	-21.24814
386.388	-17.03383
386.602	-25.46235
386.816	60.94819
387.03	-46.53192
387.244	12.46906
387.458	16.68414
387.672	29.32996
387.887	20.89932
388.101	-21.24814
388.315	25.11459
388.529	-21.24814
388.743	16.68414
388.957	29.32996
389.171	12.46906
389.385	29.32996
389.599	-8.60492
389.813	-29.67646
390.027	-42.31821
390.241	12.46906
390.455	4.03918
390.669	12.46906
390.883	-48.63874
391.097	-78.13156
391.311	-44.42508
391.525	27.22227
391.738	-35.99745
391.952	14.57659
392.166	31.43768
392.38	-19.141
392.594	-63.38577
392.808	16.68414
393.022	-76.0251
393.236	46.19237
393.449	20.89932
393.663	29.32996
393.877	12.46906
394.091	-25.46235
394.305	-42.31821
394.518	-27.56942
394.732	-2.28298
394.946	48.30027
395.16	-59.17246
395.373	-54.95905
395.587	65.16435
395.801	-4.39031
396.015	-29.67646
396.228	8.25407
396.442	29.32996
396.656	58.84015
396.869	8.25407
397.083	54.62413
397.297	-21.24814
397.51	8.25407
397.724	-0.17561
397.938	-27.56942
398.151	25.11459
398.365	37.76098
398.578	29.32996
398.792	33.54542
399.005	-35.99745
399.219	39.86879
399.433	-71.81209
399.646	10.36155
399.86	41.97663
400.073	-10.71218
400.287	23.00695
400.5	-8.60492
400.714	-2.28298
400.927	20.89932
401.141	-57.06577
401.354	-2.28298
401.567	20.89932
401.781	65.16435
401.994	-27.56942
402.208	-46.53192
402.421	31.43768
402.635	-38.10439
402.848	20.89932
403.061	-21.24814
403.275	79.92161
403.488	-8.60492
403.701	-4.39031
403.915	44.08449
404.128	16.68414
404.341	41.97663
404.555	-2.28298
404.768	56.73213
404.981	92.57157
405.195	-8.60492
405.408	27.22227
405.621	33.54542
405.834	-65.49239
406.048	33.54542
406.261	12.46906
406.474	12.46906
406.687	-2.28298
406.9	18.79172
407.114	31.43768
407.327	-19.141
407.54	-46.53192
407.753	50.4082
407.966	138.96154
408.179	-54.95905
408.392	-2.28298
408.605	-29.67646
408.819	58.84015
409.032	33.54542
409.245	16.68414
409.458	-38.10439
409.671	-21.24814
409.884	-46.53192
410.097	-71.81209
410.31	20.89932
410.523	-23.35526
410.736	6.14661
410.949	-35.99745
411.162	-78.13156
411.375	-67.59898
411.588	25.11459
411.801	12.46906
412.014	-25.46235
412.227	-10.71218
412.44	-86.55716
412.653	29.32996
412.865	67.27246
413.078	35.65319
413.291	-8.60492
413.504	31.43768
413.717	50.4082
413.93	29.32996
414.143	12.46906
414.356	-10.71218
414.568	-10.71218
414.781	73.59693
414.994	25.11459
415.207	-76.0251
415.42	67.27246
415.632	33.54542
415.845	-44.42508
416.058	-40.21131
416.271	-40.21131
416.483	-6.49763
416.696	16.68414
416.909	-59.17246
417.121	-12.81942
417.334	4.03918
417.547	-4.39031
417.759	-42.31821
417.972	-19.141
418.185	-31.78348
418.397	27.22227
418.61	-63.38577
418.823	-78.13156
419.035	4.03918
419.248	-8.60492
419.46	41.97663
419.673	-2.28298
419.885	44.08449
420.098	31.43768
420.311	6.14661
420.523	8.25407
420.736	35.65319
420.948	-128.67888
421.161	23.00695
421.373	-48.63874
421.586	46.19237
421.798	-38.10439
422.01	31.43768
422.223	-29.67646
422.435	-2.28298
422.648	-54.95905
422.86	-80.238
423.073	-27.56942
423.285	-12.81942
423.497	-63.38577
423.71	-6.49763
423.922	4.03918
424.134	-76.0251
424.347	-71.81209
424.559	8.25407
424.771	54.62413
424.984	12.46906
425.196	39.86879
425.408	58.84015
425.621	-12.81942
425.833	-71.81209
426.045	18.79172
426.257	-17.03383
426.47	-12.81942
426.682	-33.89048
426.894	12.46906
427.106	8.25407
427.318	12.46906
427.531	-31.78348
427.743	-40.21131
427.955	-42.31821
428.167	-4.39031
428.379	29.32996
428.591	8.25407
428.804	-63.38577
429.016	39.86879
429.228	-6.49763
429.44	1.93177
429.652	-54.95905
429.864	-2.28298
430.076	27.22227
430.288	20.89932
430.5	-12.81942
430.712	4.03918
430.924	25.11459
431.136	-4.39031
431.348	50.4082
431.56	-29.67646
431.772	-17.03383
431.984	-27.56942
432.196	33.54542
432.408	23.00695
432.62	58.84015
432.832	48.30027
433.044	8.25407
433.256	31.43768
433.468	-86.55716
433.679	-54.95905
433.891	-12.81942
434.103	1.93177
434.315	-25.46235
434.527	20.89932
434.739	-84.4508
434.95	-21.24814
435.162	-17.03383
435.374	77.81336
435.586	18.79172
435.798	-6.49763
436.009	29.32996
436.221	-31.78348
436.433	-8.60492
436.645	29.32996
436.856	-14.92664
437.068	37.76098
437.28	12.46906
437.491	-0.17561
437.703	-6.49763
437.915	12.46906
438.126	-21.24814
438.338	65.16435
438.55	33.54542
438.761	-54.95905
438.973	12.46906
439.184	-42.31821
439.396	-61.27913
439.608	-67.59898
439.819	-2.28298
440.031	-40.21131
440.242	-71.81209
440.454	-42.31821
440.665	-63.38577
440.877	-4.39031
441.088	6.14661
441.3	48.30027
441.511	-27.56942
441.723	4.03918
441.934	52.51615
442.146	6.14661
442.357	6.14661
442.569	48.30027
442.78	-69.70555
442.991	-46.53192
443.203	12.46906
443.414	14.57659
443.626	33.54542
443.837	-46.53192
444.048	-38.10439
444.26	-23.35526
444.471	12.46906
444.682	-67.59898
444.894	-54.95905
445.105	-33.89048
445.316	-50.74553
445.528	65.16435
445.739	-2.28298
445.95	20.89932
446.161	-29.67646
446.373	16.68414
446.584	6.14661
446.795	29.32996
447.006	-0.17561
447.217	-12.81942
447.429	-0.17561
447.64	-35.99745
447.851	4.03918
448.062	33.54542
448.273	67.27246
448.484	12.46906
448.695	18.79172
448.907	31.43768
449.118	-12.81942
449.329	23.00695
449.54	-0.17561
449.751	-44.42508
449.962	4.03918
450.173	-50.74553
450.384	-12.81942
450.595	6.14661
450.806	-8.60492
451.017	-4.39031
451.228	-21.24814
451.439	-59.17246
451.65	-29.67646
451.861	-50.74553
452.072	-38.10439
452.283	31.43768
452.494	-23.35526
452.705	1.93177
452.915	-19.141
453.126	-38.10439
453.337	-63.38577
453.548	-12.81942
453.759	-17.03383
453.97	25.11459
454.181	-12.81942
454.391	-38.10439
454.602	-25.46235
454.813	-14.92664
455.024	-17.03383
455.235	18.79172
455.445	-52.8523
455.656	-29.67646
455.867	6.14661
456.078	37.76098
456.288	44.08449
456.499	-21.24814
456.71	25.11459
456.921	33.54542
457.131	41.97663
457.342	31.43768
457.553	-17.03383
457.763	67.27246
457.974	50.4082
458.184	-33.89048
458.395	-71.81209
458.606	-6.49763
458.816	25.11459
459.027	31.43768
459.237	1.93177
459.448	29.32996
459.659	-54.95905
459.869	50.4082
460.08	-4.39031
460.29	31.43768
460.501	-8.60492
460.711	41.97663
460.922	46.19237
461.132	79.92161
461.343	-46.53192
461.553	-29.67646
461.764	-40.21131
461.974	-35.99745
462.184	-21.24814
462.395	67.27246
462.605	-4.39031
462.816	-2.28298
463.026	12.46906
463.236	14.57659
463.447	-4.39031
463.657	-23.35526
463.867	-4.39031
464.078	79.92161
464.288	29.32996
464.498	46.19237
464.709	35.65319
464.919	-29.67646
465.129	16.68414
465.339	-4.39031
465.55	-29.67646
465.76	12.46906
465.97	63.05626
466.18	25.11459
466.391	20.89932
466.601	14.57659
466.811	-67.59898
467.021	1.93177
467.231	-42.31821
467.441	20.89932
467.651	-33.89048
467.862	69.38059
468.072	-29.67646
468.282	14.57659
468.492	-103.40711
468.702	6.14661
468.912	33.54542
469.122	12.46906
469.332	16.68414
469.542	4.03918
469.752	60.94819
469.962	1.93177
470.172	20.89932
470.382	-0.17561
470.592	-33.89048
470.802	12.46906
471.012	-50.74553
471.222	25.11459
471.432	8.25407
471.642	-17.03383
471.852	96.7884
472.062	-46.53192
472.272	4.03918
472.482	-19.141
472.691	41.97663
472.901	82.02988
473.111	-99.19478
473.321	-113.93748
473.531	-0.17561
473.741	-4.39031
473.95	4.03918
474.16	-19.141
474.37	-35.99745
474.58	20.89932
474.79	6.14661
474.999	-63.38577
475.209	29.32996
475.419	-0.17561
475.628	31.43768
475.838	4.03918
476.048	-0.17561
476.258	6.14661
476.467	-17.03383
476.677	-17.03383
476.886	4.03918
477.096	-27.56942
477.306	-44.42508
477.515	25.11459
477.725	84.13817
477.935	-52.8523
478.144	-71.81209
478.354	29.32996
478.563	44.08449
478.773	-25.46235
478.982	41.97663
479.192	39.86879
479.401	37.76098
479.611	-42.31821
479.82	-10.71218
480.03	29.32996
480.239	56.73213
480.449	16.68414
480.658	25.11459
480.868	-27.56942
481.077	-38.10439
481.287	33.54542
481.496	41.97663
481.705	-19.141
481.915	-8.60492
482.124	46.19237
482.333	20.89932
482.543	-69.70555
482.752	8.25407
482.961	31.43768
483.171	16.68414
483.38	46.19237
483.589	-17.03383
483.799	-31.78348
484.008	63.05626
484.217	-78.13156
484.426	-38.10439
484.636	4.03918
484.845	29.32996
485.054	31.43768
485.263	-12.81942
485.472	-25.46235
485.682	29.32996
485.891	-0.17561
486.1	29.32996
486.309	-61.27913
486.518	31.43768
486.727	-48.63874
486.936	1.93177
487.146	14.57659
487.355	39.86879
487.564	-27.56942
487.773	14.57659
487.982	-61.27913
488.191	-17.03383
488.4	20.89932
488.609	58.84015
488.818	60.94819
489.027	-25.46235
489.236	10.36155
489.445	-21.24814
489.654	16.68414
489.863	73.59693
490.072	-12.81942
490.281	46.19237
490.49	-38.10439
490.698	-8.60492
490.907	-8.60492
491.116	-33.89048
491.325	-61.27913
491.534	-19.141
491.743	-97.08857
491.952	14.57659
492.16	46.19237
492.369	-71.81209
492.578	-88.66349
492.787	-63.38577
492.996	-46.53192
493.204	-80.238
493.413	37.76098
493.622	-78.13156
493.831	-4.39031
494.039	-27.56942
494.248	60.94819
494.457	-40.21131
494.665	-10.71218
494.874	-21.24814
495.083	98.89685
495.291	-84.4508
495.5	20.89932
495.709	-23.35526
495.917	25.11459
496.126	-88.66349
496.335	37.76098
496.543	20.89932
496.752	27.22227
496.96	-6.49763
497.169	-12.81942
497.377	18.79172
497.586	25.11459
497.794	-31.78348
498.003	63.05626
498.211	-42.31821
498.42	-17.03383
498.628	-19.141
498.837	-35.99745
499.045	79.92161
499.254	-29.67646
499.462	-46.53192
499.671	-46.53192
499.879	20.89932
500.087	-17.03383
500.296	69.38059
500.504	-69.70555
500.713	-40.21131
500.921	16.68414
501.129	-29.67646
501.338	-67.59898
501.546	-33.89048
501.754	-50.74553
501.962	86.24649
502.171	31.43768
502.379	-4.39031
502.587	31.43768
502.795	16.68414
503.004	-33.89048
503.212	8.25407
503.42	-33.89048
503.628	-17.03383
503.837	29.32996
504.045	-4.39031
504.253	33.54542
504.461	54.62413
504.669	54.62413
504.877	41.97663
505.085	41.97663
505.294	23.00695
505.502	-10.71218
505.71	50.4082
505.918	-21.24814
506.126	-61.27913
506.334	-12.81942
506.542	8.25407
506.75	52.51615
506.958	4.03918
507.166	-17.03383
507.374	27.22227
507.582	54.62413
507.79	-12.81942
507.998	-10.71218
508.206	6.14661
508.414	-10.71218
508.622	-17.03383
508.83	-14.92664
509.037	18.79172
509.245	4.03918
509.453	16.68414
509.661	60.94819
509.869	-101.30096
510.077	-23.35526
510.285	27.22227
510.492	-54.95905
510.7	-4.39031
510.908	-8.60492
511.116	54.62413
511.324	105.22233
511.531	-23.35526
511.739	-29.67646
511.947	46.19237
512.155	10.36155
512.362	-17.03383
512.57	-12.81942
512.778	-61.27913
512.985	20.89932
513.193	-12.81942
513.401	-71.81209
513.608	4.03918
513.816	25.11459
514.024	-21.24814
514.231	-69.70555
514.439	25.11459
514.646	12.46906
514.854	-61.27913
515.061	-8.60492
515.269	-0.17561
515.477	-40.21131
515.684	-38.10439
515.892	41.97663
516.099	-63.38577
516.307	-21.24814
516.514	-61.27913
516.722	79.92161
516.929	-21.24814
517.136	12.46906
517.344	8.25407
517.551	-10.71218
517.759	23.00695
517.966	-44.42508
518.173	-25.46235
518.381	-21.24814
518.588	-76.0251
518.796	-42.31821
519.003	-8.60492
519.21	-12.81942
519.418	-14.92664
519.625	-27.56942
519.832	-29.67646
520.039	-29.67646
520.247	31.43768
520.454	14.57659
520.661	-65.49239
520.868	33.54542
521.076	-21.24814
521.283	-21.24814
521.49	-78.13156
521.697	48.30027
521.904	-52.8523
522.112	-57.06577
522.319	-21.24814
522.526	-6.49763
522.733	-17.03383
522.94	-33.89048
523.147	25.11459
523.354	20.89932
523.561	33.54542
523.768	-21.24814
523.975	6.14661
524.183	1.93177
524.39	12.46906
524.597	-12.81942
524.804	-76.0251
525.011	8.25407
525.218	-54.95905
525.425	109.43943
525.632	-50.74553
525.838	-33.89048
526.045	79.92161
526.252	92.57157
526.459	6.14661
526.666	-2.28298
526.873	33.54542
527.08	-27.56942
527.287	54.62413
527.494	46.19237
527.701	29.32996
527.907	63.05626
528.114	-69.70555
528.321	-25.46235
528.528	25.11459
528.735	-6.49763
528.941	-57.06577
529.148	18.79172
529.355	4.03918
529.562	35.65319
529.768	-23.35526
529.975	8.25407
530.182	-21.24814
530.388	33.54542
530.595	-4.39031
530.802	-29.67646
531.008	41.97663
531.215	-4.39031
531.422	12.46906
531.628	-38.10439
531.835	-31.78348
532.042	20.89932
532.248	-33.89048
532.455	27.22227
532.661	-33.89048
532.868	-0.17561
533.074	-21.24814
533.281	-33.89048
533.487	20.89932
533.694	12.46906
533.9	58.84015
534.107	71.48875
534.313	71.48875
534.52	-42.31821
534.726	20.89932
534.933	4.03918
535.139	-21.24814
535.345	-14.92664
535.552	-27.56942
535.758	71.48875
535.965	6.14661
536.171	6.14661
536.377	-46.53192
536.584	-92.87609
536.79	20.89932
536.996	56.73213
537.203	-10.71218
537.409	-12.81942
537.615	10.36155
537.821	12.46906
538.028	63.05626
538.234	-80.238
538.44	-50.74553
538.646	-38.10439
538.853	31.43768
539.059	-12.81942
539.265	16.68414
539.471	-4.39031
539.677	-44.42508
539.883	-40.21131
540.09	29.32996
540.296	4.03918
540.502	-2.28298
540.708	12.46906
540.914	35.65319
541.12	-50.74553
541.326	-19.141
541.532	-69.70555
541.738	25.11459
541.944	8.25407
542.15	12.46906
542.356	71.48875
542.562	4.03918
542.768	20.89932
542.974	20.89932
543.18	-23.35526
543.386	-14.92664
543.592	20.89932
543.798	4.03918
544.004	-44.42508
544.21	-4.39031
544.415	-17.03383
544.621	-31.78348
544.827	-12.81942
545.033	1.93177
545.239	20.89932
545.445	4.03918
545.651	6.14661
545.856	-0.17561
546.062	-50.74553
546.268	-27.56942
546.474	-4.39031
546.679	-35.99745
546.885	25.11459
547.091	-4.39031
547.297	113.65661
547.502	-12.81942
547.708	10.36155
547.914	58.84015
548.119	-14.92664
548.325	-0.17561
548.531	-40.21131
548.736	-42.31821
548.942	-8.60492
549.147	-6.49763
549.353	-71.81209
549.559	-19.141
549.764	33.54542
549.97	-44.42508
550.175	-12.81942
550.381	1.93177
550.586	-25.46235
550.792	-8.60492
550.997	33.54542
551.203	-6.49763
551.408	-35.99745
551.614	-0.17561
551.819	-6.49763
552.025	-25.46235
552.23	-4.39031
552.435	-2.28298
552.641	-8.60492
552.846	-65.49239
553.052	69.38059
553.257	-31.78348
553.462	4.03918
553.668	-42.31821
553.873	-42.31821
554.078	29.32996
554.283	12.46906
554.489	14.57659
554.694	-29.67646
554.899	-33.89048
555.105	-42.31821
555.31	-27.56942
555.515	58.84015
555.72	-8.60492
555.925	54.62413
556.131	14.57659
556.336	-38.10439
556.541	-46.53192
556.746	-76.0251
556.951	48.30027
557.156	-29.67646
557.361	46.19237
557.567	-0.17561
557.772	14.57659
557.977	23.00695
558.182	-50.74553
558.387	-12.81942
558.592	-8.60492
558.797	12.46906
559.002	-54.95905
559.207	-0.17561
559.412	27.22227
559.617	25.11459
559.822	-63.38577
560.027	33.54542
560.232	33.54542
560.437	4.03918
560.642	-33.89048
560.847	14.57659
561.051	-4.39031
561.256	-19.141
561.461	29.32996
561.666	-6.49763
561.871	46.19237
562.076	-12.81942
562.281	50.4082
562.485	8.25407
562.69	16.68414
562.895	-46.53192
563.1	4.03918
563.305	25.11459
563.509	-48.63874
563.714	8.25407
563.919	73.59693
564.123	-0.17561
564.328	-8.60492
564.533	60.94819
564.737	-29.67646
564.942	4.03918
565.147	1.93177
565.351	-17.03383
565.556	-21.24814
565.761	35.65319
565.965	-4.39031
566.17	-29.67646
566.374	37.76098
566.579	56.73213
566.784	1.93177
566.988	20.89932
567.193	-33.89048
567.397	12.46906
567.602	-40.21131
567.806	23.00695
568.011	-35.99745
568.215	-27.56942
568.42	12.46906
568.624	-2.28298
568.828	16.68414
569.033	-19.141
569.237	37.76098
569.442	48.30027
569.646	-71.81209
569.85	44.08449
570.055	-31.78348
570.259	-25.46235
570.463	25.11459
570.668	39.86879
570.872	-84.4508
571.076	-12.81942
571.281	10.36155
571.485	44.08449
571.689	-54.95905
571.893	-2.28298
572.098	-17.03383
572.302	-40.21131
572.506	14.57659
572.71	10.36155
572.914	33.54542
573.119	-19.141
573.323	20.89932
573.527	-25.46235
573.731	29.32996
573.935	25.11459
574.139	-0.17561
574.343	54.62413
574.547	-59.17246
574.751	8.25407
574.955	4.03918
575.159	12.46906
575.364	8.25407
575.568	-4.39031
575.772	-54.95905
575.976	-50.74553
576.18	-61.27913
576.383	50.4082
576.587	-33.89048
576.791	-4.39031
576.995	-17.03383
577.199	-2.28298
577.403	31.43768
577.607	-4.39031
577.811	-17.03383
578.015	-4.39031
578.219	-76.0251
578.422	4.03918
578.626	12.46906
578.83	-59.17246
579.034	29.32996
579.238	-0.17561
579.442	-27.56942
579.645	8.25407
579.849	-29.67646
580.053	-12.81942
580.257	71.48875
580.46	-86.55716
580.664	27.22227
580.868	16.68414
581.071	33.54542
581.275	23.00695
581.479	1.93177
581.682	6.14661
581.886	-54.95905
582.09	-44.42508
582.293	-33.89048
582.497	-27.56942
582.7	-4.39031
582.904	-40.21131
583.107	12.46906
583.311	96.7884
583.515	-94.98234
583.718	-17.03383
583.922	-4.39031
584.125	-6.49763
584.329	14.57659
584.532	-10.71218
584.735	79.92161
584.939	-50.74553
585.142	-38.10439
585.346	79.92161
585.549	25.11459
585.753	4.03918
585.956	-33.89048
586.159	12.46906
586.363	84.13817
586.566	23.00695
586.769	52.51615
586.973	-21.24814
587.176	-54.95905
587.379	4.03918
587.582	8.25407
587.786	29.32996
587.989	60.94819
588.192	41.97663
588.395	46.19237
588.599	-31.78348
588.802	23.00695
589.005	12.46906
589.208	-38.10439
589.411	-17.03383
589.615	-17.03383
589.818	-4.39031
590.021	-54.95905
590.224	-25.46235
590.427	-4.39031
590.63	-12.81942
590.833	-67.59898
591.036	-21.24814
591.239	-46.53192
591.442	67.27246
591.645	56.73213
591.848	1.93177
592.051	-27.56942
592.254	-8.60492
592.457	6.14661
592.66	-4.39031
592.863	10.36155
593.066	48.30027
593.269	-12.81942
593.472	29.32996
593.675	4.03918
593.878	37.76098
594.081	50.4082
594.284	31.43768
594.486	20.89932
594.689	-4.39031
594.892	-92.87609
595.095	-0.17561
595.298	-42.31821
595.5	16.68414
595.703	-42.31821
595.906	-71.81209
596.109	56.73213
596.311	33.54542
596.514	-21.24814
596.717	-8.60492
596.92	-19.141
597.122	-33.89048
597.325	25.11459
597.528	-12.81942
597.73	8.25407
597.933	50.4082
598.136	-33.89048
598.338	52.51615
598.541	-50.74553
598.743	54.62413
598.946	12.46906
599.148	-42.31821
599.351	-21.24814
599.554	96.7884
599.756	48.30027
599.959	6.14661
600.161	-17.03383
600.363	147.39721
600.566	33.54542
600.768	-38.10439
600.971	54.62413
601.173	-10.71218
601.376	-42.31821
601.578	54.62413
601.78	16.68414
601.983	-38.10439
602.185	-17.03383
602.388	-0.17561
602.59	37.76098
602.792	-35.99745
602.995	-71.81209
603.197	6.14661
603.399	-17.03383
603.601	8.25407
603.804	-44.42508
604.006	-61.27913
604.208	50.4082
604.41	14.57659
604.613	-42.31821
604.815	25.11459
605.017	37.76098
605.219	63.05626
605.421	29.32996
605.623	-33.89048
605.826	-14.92664
606.028	12.46906
606.23	46.19237
606.432	-4.39031
606.634	-27.56942
606.836	20.89932
607.038	54.62413
607.24	-19.141
607.442	-14.92664
607.644	20.89932
607.846	-29.67646
608.048	-19.141
608.25	12.46906
608.452	39.86879
608.654	-33.89048
608.856	31.43768
609.058	-46.53192
609.26	134.74384
609.462	-12.81942
609.664	41.97663
609.866	-21.24814
610.067	-17.03383
610.269	-19.141
610.471	-4.39031
610.673	14.57659
610.875	-23.35526
611.077	20.89932
611.278	-2.28298
611.48	-76.0251
611.682	-46.53192
611.884	-21.24814
612.085	-33.89048
612.287	-4.39031
612.489	-17.03383
612.69	-38.10439
612.892	-21.24814
613.094	18.79172
613.295	25.11459
613.497	-21.24814
613.699	-10.71218
613.9	-4.39031
614.102	-48.63874
614.304	-29.67646
614.505	-10.71218
614.707	20.89932
614.908	12.46906
615.11	88.35483
615.311	-17.03383
615.513	-2.28298
615.714	31.43768
615.916	50.4082
616.117	16.68414
616.319	-61.27913
616.52	48.30027
616.722	-25.46235
616.923	-44.42508
617.124	37.76098
617.326	-44.42508
617.527	-29.67646
617.729	37.76098
617.93	16.68414
618.131	73.59693
618.333	-29.67646
618.534	-2.28298
618.735	-52.8523
618.937	-42.31821
619.138	-80.238
619.339	-25.46235
619.54	6.14661
619.742	4.03918
619.943	8.25407
620.144	-54.95905
620.345	-25.46235
620.546	29.32996
620.748	-8.60492
620.949	-8.60492
621.15	8.25407
621.351	-8.60492
621.552	1.93177
621.753	-10.71218
621.954	-19.141
622.155	46.19237
622.356	12.46906
622.558	-23.35526
622.759	27.22227
622.96	-52.8523
623.161	31.43768
623.362	37.76098
623.563	6.14661
623.764	-38.10439
623.965	-4.39031
624.166	20.89932
624.366	-69.70555
624.567	37.76098
624.768	23.00695
624.969	27.22227
625.17	-46.53192
625.371	-27.56942
625.572	37.76098
625.773	12.46906
625.973	33.54542
626.174	-19.141
626.375	-14.92664
626.576	41.97663
626.777	-4.39031
626.977	63.05626
627.178	-2.28298
627.379	-46.53192
627.58	-17.03383
627.78	-52.8523
627.981	48.30027
628.182	90.46319
628.382	-78.13156
628.583	-25.46235
628.784	14.57659
628.984	37.76098
629.185	-33.89048
629.386	18.79172
629.586	-76.0251
629.787	-63.38577
629.987	-10.71218
630.188	35.65319
630.388	54.62413
630.589	-29.67646
630.79	-42.31821
630.99	20.89932
631.191	-38.10439
631.391	-4.39031
631.591	29.32996
631.792	14.57659
631.992	6.14661
632.193	-27.56942
632.393	-35.99745
632.594	18.79172
632.794	65.16435
632.994	-14.92664
633.195	-2.28298
633.395	14.57659
633.595	-46.53192
633.796	31.43768
633.996	-54.95905
634.196	29.32996
634.397	23.00695
634.597	-4.39031
634.797	75.70514
634.997	-19.141
635.198	-111.83146
635.398	-23.35526
635.598	-29.67646
635.798	-2.28298
635.998	12.46906
636.199	-4.39031
636.399	-84.4508
636.599	10.36155
636.799	12.46906
636.999	-21.24814
637.199	39.86879
637.399	12.46906
637.599	-12.81942
637.799	94.67998
637.999	20.89932
638.199	54.62413
638.399	4.03918
638.599	-2.28298
638.799	23.00695
638.999	-54.95905
639.199	4.03918
639.399	31.43768
639.599	101.00532
639.799	-2.28298
639.999	-31.78348
640.199	-4.39031
640.399	-42.31821
640.599	86.24649
640.799	-65.49239
640.998	8.25407
641.198	-4.39031
641.398	-8.60492
641.598	-78.13156
641.798	82.02988
641.997	4.03918
642.197	-8.60492
642.397	-52.8523
642.597	-46.53192
642.796	14.57659
642.996	4.03918
643.196	16.68414
643.395	56.73213
643.595	-71.81209
643.795	-54.95905
643.994	-21.24814
644.194	8.25407
644.394	20.89932
644.593	-86.55716
644.793	10.36155
644.992	39.86879
645.192	-14.92664
645.392	-12.81942
645.591	-17.03383
645.791	4.03918
645.99	33.54542
646.19	18.79172
646.389	79.92161
646.589	18.79172
646.788	8.25407
646.987	-57.06577
647.187	-63.38577
647.386	-31.78348
647.586	69.38059
647.785	-8.60492
647.984	18.79172
648.184	-46.53192
648.383	12.46906
648.582	73.59693
648.782	-44.42508
648.981	-25.46235
649.18	-29.67646
649.38	25.11459
649.579	-10.71218
649.778	12.46906
649.977	-59.17246
650.177	-25.46235
650.376	-10.71218
650.575	12.46906
650.774	-4.39031
650.973	-33.89048
651.173	-61.27913
651.372	58.84015
651.571	-71.81209
651.77	23.00695
651.969	-2.28298
652.168	-29.67646
652.367	8.25407
652.566	-4.39031
652.765	-21.24814
652.964	-61.27913
653.163	8.25407
653.362	33.54542
653.561	23.00695
653.76	18.79172
653.959	20.89932
654.158	4.03918
654.357	4.03918
654.556	44.08449
654.755	20.89932
654.954	-4.39031
655.153	-0.17561
655.352	4.03918
655.551	63.05626
655.749	-2.28298
655.948	88.35483
656.147	4.03918
656.346	-80.238
656.545	-29.67646
656.743	-25.46235
656.942	-59.17246
657.141	-8.60492
657.34	12.46906
657.538	-2.28298
657.737	-44.42508
657.936	-86.55716
658.135	20.89932
658.333	-12.81942
658.532	25.11459
658.731	12.46906
658.929	-14.92664
659.128	-44.42508
659.326	-12.81942
659.525	27.22227
659.724	-21.24814
659.922	16.68414
660.121	-2.28298
660.319	-50.74553
660.518	41.97663
660.716	-10.71218
660.915	52.51615
661.113	14.57659
661.312	23.00695
661.51	41.97663
661.709	-54.95905
661.907	31.43768
662.105	-17.03383
662.304	-12.81942
662.502	4.03918
662.701	25.11459
662.899	-10.71218
663.097	-17.03383
663.296	79.92161
663.494	12.46906
663.692	-14.92664
663.891	-29.67646
664.089	-94.98234
664.287	-80.238
664.485	-10.71218
664.684	-19.141
664.882	-10.71218
665.08	-14.92664
665.278	86.24649
665.476	-4.39031
665.675	4.03918
665.873	16.68414
666.071	-48.63874
666.269	12.46906
666.467	50.4082
666.665	31.43768
666.863	46.19237
667.061	16.68414
667.259	-4.39031
667.457	12.46906
667.655	14.57659
667.853	14.57659
668.051	12.46906
668.249	96.7884
668.447	-80.238
668.645	16.68414
668.843	48.30027
669.041	29.32996
669.239	29.32996
669.437	4.03918
669.635	10.36155
669.833	29.32996
670.031	60.94819
670.229	33.54542
670.426	-12.81942
670.624	-48.63874
670.822	20.89932
671.02	-12.81942
671.218	-54.95905
671.415	41.97663
671.613	33.54542
671.811	-10.71218
672.009	12.46906
672.206	-12.81942
672.404	16.68414
672.602	-50.74553
672.799	1.93177
672.997	-48.63874
673.195	50.4082
673.392	29.32996
673.59	-0.17561
673.788	46.19237
673.985	29.32996
674.183	-57.06577
674.38	-31.78348
674.578	35.65319
674.775	-23.35526
674.973	-19.141
675.17	20.89932
675.368	-61.27913
675.565	-88.66349
675.763	-23.35526
675.96	27.22227
676.158	23.00695
676.355	37.76098
676.553	37.76098
676.75	-71.81209
676.947	-0.17561
677.145	-4.39031
677.342	16.68414
677.539	-19.141
677.737	-4.39031
677.934	-0.17561
678.131	-44.42508
678.329	58.84015
678.526	-44.42508
678.723	23.00695
678.92	18.79172
679.118	-21.24814
679.315	-19.141
679.512	-27.56942
679.709	-0.17561
679.906	56.73213
680.104	8.25407
680.301	-0.17561
680.498	60.94819
680.695	-44.42508
680.892	4.03918
681.089	-59.17246
681.286	-14.92664
681.483	8.25407
681.68	25.11459
681.877	-76.0251
682.075	-21.24814
682.272	23.00695
682.469	4.03918
682.665	-8.60492
682.862	-0.17561
683.059	18.79172
683.256	-21.24814
683.453	-67.59898
683.65	12.46906
683.847	29.32996
684.044	50.4082
684.241	44.08449
684.438	23.00695
684.635	33.54542
684.831	54.62413
685.028	-48.63874
685.225	10.36155
685.422	63.05626
685.619	-4.39031
685.815	6.14661
686.012	-19.141
686.209	25.11459
686.405	-29.67646
686.602	-54.95905
686.799	50.4082
686.996	-33.89048
687.192	-0.17561
687.389	-29.67646
687.586	-44.42508
687.782	12.46906
687.979	58.84015
688.175	-4.39031
688.372	-10.71218
688.568	46.19237
688.765	-6.49763
688.962	-2.28298
689.158	-29.67646
689.355	4.03918
689.551	-10.71218
689.748	29.32996
689.944	4.03918
690.14	4.03918
690.337	46.19237
690.533	-33.89048
690.73	-21.24814
690.926	29.32996
691.123	56.73213
691.319	18.79172
691.515	-17.03383
691.712	6.14661
691.908	25.11459
692.104	-35.99745
692.301	-23.35526
692.497	65.16435
692.693	77.81336
692.889	23.00695
693.086	-33.89048
693.282	12.46906
693.478	-17.03383
693.674	-10.71218
693.87	-31.78348
694.067	25.11459
694.263	39.86879
694.459	52.51615
694.655	18.79172
694.851	41.97663
695.047	31.43768
695.243	-19.141
695.439	4.03918
695.635	37.76098
695.831	41.97663
696.027	58.84015
696.224	-21.24814
696.42	20.89932
696.615	-0.17561
696.811	-19.141
697.007	12.46906
697.203	6.14661
697.399	50.4082
697.595	35.65319
697.791	-0.17561
697.987	35.65319
698.183	-38.10439
698.379	41.97663
698.575	4.03918
698.77	10.36155
698.966	6.14661
699.162	39.86879
699.358	12.46906
699.554	20.89932
699.749	-35.99745
699.945	-38.10439
700.141	6.14661
700.337	-38.10439
700.532	-17.03383
700.728	56.73213
700.924	-46.53192
701.119	75.70514
701.315	-29.67646
701.511	-0.17561
701.706	10.36155
701.902	1.93177
702.097	10.36155
702.293	56.73213
702.489	-19.141
702.684	-33.89048
702.88	41.97663
703.075	16.68414
703.271	-27.56942
703.466	-46.53192
703.662	-25.46235
703.857	-42.31821
704.053	37.76098
704.248	4.03918
704.443	25.11459
704.639	-29.67646
704.834	56.73213
705.03	-12.81942
705.225	79.92161
705.42	-27.56942
705.616	-6.49763
705.811	-4.39031
706.006	-17.03383
706.202	25.11459
706.397	20.89932
706.592	-6.49763
706.787	-84.4508
706.983	31.43768
707.178	12.46906
707.373	-46.53192
707.568	48.30027
707.763	-0.17561
707.959	-8.60492
708.154	-46.53192
708.349	4.03918
708.544	31.43768
708.739	29.32996
708.934	-57.06577
709.129	4.03918
709.324	-17.03383
709.519	4.03918
709.714	16.68414
709.909	50.4082
710.104	-12.81942
710.299	41.97663
710.494	8.25407
710.689	48.30027
710.884	-33.89048
711.079	25.11459
711.274	12.46906
711.469	-4.39031
711.664	-88.66349
711.859	-38.10439
712.054	4.03918
712.249	29.32996
712.443	-67.59898
712.638	46.19237
712.833	8.25407
713.028	46.19237
713.223	12.46906
713.417	18.79172
713.612	73.59693
713.807	-57.06577
714.002	-76.0251
714.196	4.03918
714.391	31.43768
714.586	16.68414
714.78	4.03918
714.975	-76.0251
715.17	-2.28298
715.364	-52.8523
715.559	-12.81942
715.754	-52.8523
715.948	33.54542
716.143	69.38059
716.337	-33.89048
716.532	46.19237
716.726	-38.10439
716.921	29.32996
717.115	-14.92664
717.31	-14.92664
717.504	50.4082
717.699	29.32996
717.893	35.65319
718.088	-42.31821
718.282	82.02988
718.476	20.89932
718.671	41.97663
718.865	-19.141
719.059	75.70514
719.254	54.62413
719.448	-2.28298
719.642	4.03918
719.837	-52.8523
720.031	41.97663
720.225	-42.31821
720.419	-92.87609
720.614	-12.81942
720.808	29.32996
721.002	-25.46235
721.196	41.97663
721.39	-50.74553
721.585	14.57659
721.779	-8.60492
721.973	-33.89048
722.167	-52.8523
722.361	41.97663
722.555	-6.49763
722.749	-19.141
722.943	-8.60492
723.137	6.14661
723.331	12.46906
723.525	-17.03383
723.719	8.25407
723.913	37.76098
724.107	4.03918
724.301	-10.71218
724.495	20.89932
724.689	33.54542
724.883	-6.49763
725.077	67.27246
725.271	4.03918
725.465	-6.49763
725.659	12.46906
725.853	-38.10439
726.046	25.11459
726.24	-0.17561
726.434	-40.21131
726.628	56.73213
726.822	67.27246
727.015	20.89932
727.209	-35.99745
727.403	-0.17561
727.596	-86.55716
727.79	-80.238
727.984	56.73213
728.177	14.57659
728.371	50.4082
728.565	-21.24814
728.758	6.14661
728.952	29.32996
729.146	1.93177
729.339	-21.24814
729.533	31.43768
729.726	82.02988
729.92	-40.21131
730.113	12.46906
730.307	10.36155
730.5	14.57659
730.694	-33.89048
730.887	8.25407
731.081	12.46906
731.274	-52.8523
731.468	23.00695
731.661	-42.31821
731.854	-67.59898
732.048	60.94819
732.241	20.89932
732.435	8.25407
732.628	-21.24814
732.821	-0.17561
733.014	18.79172
733.208	29.32996
733.401	73.59693
733.594	67.27246
733.788	20.89932
733.981	20.89932
734.174	4.03918
734.367	-50.74553
734.56	29.32996
734.754	27.22227
734.947	-29.67646
735.14	18.79172
735.333	65.16435
735.526	6.14661
735.719	63.05626
735.912	-27.56942
736.105	29.32996
736.298	-25.46235
736.491	37.76098
736.684	-6.49763
736.877	10.36155
737.07	63.05626
737.263	-69.70555
737.456	-4.39031
737.649	10.36155
737.842	-10.71218
738.035	-17.03383
738.228	-54.95905
738.421	8.25407
738.614	-71.81209
738.807	-80.238
739	-6.49763
739.192	29.32996
739.385	14.57659
739.578	6.14661
739.771	-19.141
739.964	31.43768
740.156	-50.74553
740.349	-42.31821
740.542	-44.42508
740.735	-12.81942
740.927	4.03918
741.12	4.03918
741.313	20.89932
741.505	-25.46235
741.698	-46.53192
741.891	29.32996
742.083	25.11459
742.276	6.14661
742.468	12.46906
742.661	-67.59898
742.854	44.08449
743.046	56.73213
743.239	-59.17246
743.431	-4.39031
743.624	69.38059
743.816	25.11459
744.009	-21.24814
744.201	31.43768
744.393	84.13817
744.586	12.46906
744.778	23.00695
744.971	-90.7698
745.163	35.65319
745.355	-38.10439
745.548	6.14661
745.74	4.03918
745.932	-27.56942
746.125	52.51615
746.317	-29.67646
746.509	50.4082
746.702	-25.46235
746.894	-4.39031
747.086	6.14661
747.278	-25.46235
747.471	-4.39031
747.663	29.32996
747.855	20.89932
748.047	-14.92664
748.239	41.97663
748.431	-4.39031
748.623	-50.74553
748.815	-52.8523
749.008	33.54542
749.2	60.94819
749.392	4.03918
749.584	-38.10439
749.776	63.05626
749.968	12.46906
750.16	4.03918
750.352	23.00695
750.544	4.03918
750.736	46.19237
750.928	18.79172
751.12	39.86879
751.311	-42.31821
751.503	-2.28298
751.695	50.4082
751.887	25.11459
752.079	48.30027
752.271	-2.28298
752.463	8.25407
752.654	16.68414
752.846	-8.60492
753.038	-17.03383
753.23	-8.60492
753.421	1.93177
753.613	33.54542
753.805	-6.49763
753.997	16.68414
754.188	-17.03383
754.38	20.89932
754.572	-38.10439
754.763	-29.67646
754.955	-29.67646
755.146	1.93177
755.338	52.51615
755.53	1.93177
755.721	-2.28298
755.913	-27.56942
756.104	-19.141
756.296	23.00695
756.487	27.22227
756.679	-8.60492
756.87	-52.8523
757.062	-0.17561
757.253	1.93177
757.445	4.03918
757.636	16.68414
757.827	10.36155
758.019	1.93177
758.21	-61.27913
758.401	20.89932
758.593	-19.141
758.784	37.76098
758.975	37.76098
759.167	48.30027
759.358	8.25407
759.549	10.36155
759.74	29.32996
759.932	4.03918
760.123	-44.42508
760.314	33.54542
760.505	-17.03383
760.696	-92.87609
760.888	-21.24814
761.079	16.68414
761.27	54.62413
761.461	65.16435
761.652	46.19237
761.843	-8.60492
762.034	-8.60492
762.225	-25.46235
762.416	25.11459
762.607	46.19237
762.798	12.46906
762.989	-17.03383
763.18	4.03918
763.371	-4.39031
763.562	6.14661
763.753	4.03918
763.944	-8.60492
764.135	50.4082
764.326	31.43768
764.517	-25.46235
764.708	-50.74553
764.899	-4.39031
765.089	-4.39031
765.28	65.16435
765.471	-31.78348
765.662	27.22227
765.853	4.03918
766.043	23.00695
766.234	12.46906
766.425	39.86879
766.615	29.32996
766.806	12.46906
766.997	48.30027
767.187	37.76098
767.378	12.46906
767.569	-10.71218
767.759	-10.71218
767.95	54.62413
768.141	-52.8523
768.331	54.62413
768.522	-35.99745
768.712	-29.67646
768.903	8.25407
769.093	25.11459
769.284	-27.56942
769.474	29.32996
769.665	60.94819
769.855	14.57659
770.046	-57.06577
770.236	-0.17561
770.426	-76.0251
770.617	41.97663
770.807	-86.55716
770.998	48.30027
771.188	14.57659
771.378	-25.46235
771.569	-84.4508
771.759	134.74384
771.949	-4.39031
772.139	92.57157
772.33	14.57659
772.52	12.46906
772.71	25.11459
772.9	31.43768
773.09	12.46906
773.281	-29.67646
773.471	-4.39031
773.661	46.19237
773.851	-25.46235
774.041	67.27246
774.231	6.14661
774.421	33.54542
774.611	-19.141
774.802	-2.28298
774.992	23.00695
775.182	-0.17561
775.372	12.46906
775.562	54.62413
775.752	-14.92664
775.942	50.4082
776.131	-52.8523
776.321	77.81336
776.511	58.84015
776.701	-21.24814
776.891	-50.74553
777.081	52.51615
777.271	-6.49763
777.461	58.84015
777.651	-12.81942
777.84	-52.8523
778.03	33.54542
778.22	-61.27913
778.41	-8.60492
778.599	-29.67646
778.789	23.00695
778.979	-35.99745
779.169	-21.24814
779.358	56.73213
779.548	16.68414
779.738	12.46906
779.927	48.30027
780.117	-10.71218
780.307	-44.42508
780.496	-4.39031
780.686	-4.39031
780.875	-4.39031
781.065	20.89932
781.254	-0.17561
781.444	-27.56942
781.633	84.13817
781.823	-31.78348
782.012	14.57659
782.202	-48.63874
782.391	-6.49763
782.581	14.57659
782.77	-44.42508
782.96	20.89932
783.149	37.76098
783.338	-25.46235
783.528	-48.63874
783.717	12.46906
783.906	6.14661
784.096	37.76098
784.285	20.89932
784.474	-2.28298
784.663	-6.49763
784.853	37.76098
785.042	4.03918
785.231	29.32996
785.42	-0.17561
785.61	35.65319
785.799	-8.60492
785.988	-35.99745
786.177	-4.39031
786.366	50.4082
786.555	29.32996
786.744	71.48875
786.933	109.43943
787.122	29.32996
787.312	60.94819
787.501	-10.71218
787.69	-2.28298
787.879	63.05626
788.068	-21.24814
788.257	-54.95905
788.445	-50.74553
788.634	8.25407
788.823	46.19237
789.012	37.76098
789.201	23.00695
789.39	-12.81942
789.579	41.97663
789.768	31.43768
789.957	-21.24814
790.145	-52.8523
790.334	-4.39031
790.523	-27.56942
790.712	56.73213
790.9	-54.95905
791.089	37.76098
791.278	-8.60492
791.467	12.46906
791.655	-57.06577
791.844	37.76098
792.033	37.76098
792.221	-12.81942
792.41	-33.89048
792.599	-38.10439
792.787	14.57659
792.976	75.70514
793.164	50.4082
793.353	-4.39031
793.541	37.76098
793.73	29.32996
793.918	33.54542
794.107	-4.39031
794.295	-0.17561
794.484	29.32996
794.672	-10.71218
794.861	-94.98234
795.049	-61.27913
795.238	46.19237
795.426	-23.35526
795.614	29.32996
795.803	-14.92664
795.991	20.89932
796.179	16.68414
796.368	-27.56942
796.556	35.65319
796.744	29.32996
796.932	-0.17561
797.121	-19.141
797.309	-44.42508
797.497	-35.99745
797.685	-44.42508
797.874	-38.10439
798.062	20.89932
798.25	-54.95905
798.438	-17.03383
798.626	-46.53192
798.814	18.79172
799.002	4.03918
799.19	-19.141
799.378	-17.03383
799.566	-33.89048
799.755	23.00695
799.943	-63.38577
800.131	60.94819
800.318	12.46906
800.506	58.84015
800.694	-4.39031
800.882	23.00695
801.07	31.43768
801.258	-4.39031
801.446	-33.89048
801.634	29.32996
801.822	-17.03383
802.01	-12.81942
802.197	44.08449
802.385	-19.141
802.573	54.62413
802.761	-76.0251
802.949	-29.67646
803.136	71.48875
803.324	39.86879
803.512	98.89685
803.699	-17.03383
803.887	46.19237
804.075	-54.95905
804.262	-4.39031
804.45	52.51615
804.638	-4.39031
804.825	-57.06577
805.013	50.4082
805.201	-44.42508
805.388	-8.60492
805.576	-8.60492
805.763	-8.60492
805.951	-8.60492
806.138	1.93177
806.326	-0.17561
806.513	-6.49763
806.701	44.08449
806.888	20.89932
807.075	29.32996
807.263	48.30027
807.45	6.14661
807.638	-54.95905
807.825	50.4082
808.012	12.46906
808.2	-42.31821
808.387	-33.89048
808.574	-29.67646
808.761	16.68414
808.949	12.46906
809.136	-8.60492
809.323	6.14661
809.51	-23.35526
809.698	-21.24814
809.885	-10.71218
810.072	8.25407
810.259	-17.03383
810.446	23.00695
810.633	65.16435
810.82	-111.83146
811.008	-12.81942
811.195	-27.56942
811.382	27.22227
811.569	-67.59898
811.756	23.00695
811.943	-4.39031
812.13	-33.89048
812.317	54.62413
812.504	-38.10439
812.691	8.25407
812.878	-109.72541
813.064	88.35483
813.251	25.11459
813.438	-2.28298
813.625	105.22233
813.812	-88.66349
813.999	14.57659
814.186	-44.42508
814.372	-0.17561
814.559	20.89932
814.746	-12.81942
814.933	-4.39031
815.12	-38.10439
815.306	37.76098
815.493	-2.28298
815.68	31.43768
815.866	33.54542
816.053	4.03918
816.24	41.97663
816.426	-63.38577
816.613	6.14661
816.799	-65.49239
816.986	-10.71218
817.173	-0.17561
817.359	-21.24814
817.546	29.32996
817.732	-33.89048
817.919	37.76098
818.105	27.22227
818.292	52.51615
818.478	-4.39031
818.665	-59.17246
818.851	-38.10439
819.037	-0.17561
819.224	-2.28298
819.41	-10.71218
819.597	-12.81942
819.783	23.00695
819.969	-54.95905
820.156	88.35483
820.342	58.84015
820.528	4.03918
820.714	-2.28298
820.901	4.03918
821.087	20.89932
821.273	39.86879
821.459	-0.17561
821.646	12.46906
821.832	12.46906
822.018	-2.28298
822.204	12.46906
822.39	14.57659
822.576	31.43768
822.762	75.70514
822.948	-35.99745
823.134	63.05626
823.32	23.00695
823.507	-8.60492
823.693	33.54542
823.879	-14.92664
824.065	-17.03383
824.25	8.25407
824.436	4.03918
824.622	6.14661
824.808	50.4082
824.994	-71.81209
825.18	29.32996
825.366	-14.92664
825.552	39.86879
825.738	-35.99745
825.923	-67.59898
826.109	-21.24814
826.295	14.57659
826.481	-19.141
826.667	-4.39031
826.852	20.89932
827.038	12.46906
827.224	-21.24814
827.409	-12.81942
827.595	-35.99745
827.781	14.57659
827.966	-12.81942
828.152	41.97663
828.338	-0.17561
828.523	-12.81942
828.709	46.19237
828.894	37.76098
829.08	8.25407
829.266	16.68414
829.451	4.03918
829.637	41.97663
829.822	39.86879
830.008	-21.24814
830.193	14.57659
830.378	12.46906
830.564	8.25407
830.749	-52.8523
830.935	-54.95905
831.12	67.27246
831.305	-46.53192
831.491	-12.81942
831.676	12.46906
831.861	31.43768
832.047	31.43768
832.232	-35.99745
832.417	-4.39031
832.602	-25.46235
832.788	-8.60492
832.973	48.30027
833.158	-40.21131
833.343	39.86879
833.528	-4.39031
833.714	58.84015
833.899	79.92161
834.084	25.11459
834.269	10.36155
834.454	14.57659
834.639	12.46906
834.824	-21.24814
835.009	20.89932
835.194	23.00695
835.379	60.94819
835.564	16.68414
835.749	1.93177
835.934	79.92161
836.119	18.79172
836.304	41.97663
836.489	-46.53192
836.674	44.08449
836.859	56.73213
837.044	29.32996
837.228	-52.8523
837.413	-48.63874
837.598	20.89932
837.783	-38.10439
837.968	-12.81942
838.152	-54.95905
838.337	39.86879
838.522	39.86879
838.707	23.00695
838.891	56.73213
839.076	63.05626
839.261	33.54542
839.445	-38.10439
839.63	16.68414
839.815	-33.89048
839.999	107.33087
840.184	-8.60492
840.368	-12.81942
840.553	56.73213
840.737	20.89932
840.922	4.03918
841.106	98.89685
841.291	-50.74553
841.475	-2.28298
841.66	41.97663
841.844	-19.141
842.029	29.32996
842.213	35.65319
842.397	6.14661
842.582	20.89932
842.766	75.70514
842.951	4.03918
843.135	-4.39031
843.319	-38.10439
843.504	-50.74553
843.688	-25.46235
843.872	8.25407
844.056	46.19237
844.241	-12.81942
844.425	20.89932
844.609	-46.53192
844.793	-35.99745
844.977	4.03918
845.161	4.03918
845.346	25.11459
845.53	41.97663
845.714	-29.67646
845.898	-29.67646
846.082	48.30027
846.266	-27.56942
846.45	-50.74553
846.634	20.89932
846.818	23.00695
847.002	-31.78348
847.186	4.03918
847.37	8.25407
847.554	-4.39031
847.738	-82.34441
847.922	-19.141
848.106	63.05626
848.29	-2.28298
848.473	-59.17246
848.657	-29.67646
848.841	-21.24814
849.025	-54.95905
849.209	37.76098
849.392	71.48875
849.576	-0.17561
849.76	-42.31821
849.944	-12.81942
850.127	12.46906
850.311	-12.81942
850.495	71.48875
850.678	29.32996
850.862	16.68414
851.046	-21.24814
851.229	4.03918
851.413	-0.17561
851.596	50.4082
851.78	-0.17561
851.964	6.14661
852.147	-25.46235
852.331	35.65319
852.514	14.57659
852.698	-12.81942
852.881	-54.95905
853.065	6.14661
853.248	1.93177
853.431	-76.0251
853.615	29.32996
853.798	33.54542
853.982	52.51615
854.165	-25.46235
854.348	79.92161
854.532	-38.10439
854.715	-31.78348
854.898	14.57659
855.081	-67.59898
855.265	-17.03383
855.448	-63.38577
855.631	6.14661
855.814	-2.28298
855.997	52.51615
856.181	-35.99745
856.364	-8.60492
856.547	12.46906
856.73	-23.35526
856.913	-0.17561
857.096	8.25407
857.279	58.84015
857.462	6.14661
857.645	-2.28298
857.828	63.05626
858.011	-54.95905
858.194	8.25407
858.377	69.38059
858.56	-10.71218
858.743	46.19237
858.926	25.11459
859.109	-19.141
859.292	8.25407
859.475	119.98255
859.658	14.57659
859.841	14.57659
860.023	-65.49239
860.206	-2.28298
860.389	18.79172
860.572	-17.03383
860.755	58.84015
860.937	-35.99745
861.12	-10.71218
861.303	18.79172
861.486	16.68414
861.668	54.62413
861.851	14.57659
862.034	50.4082
862.216	12.46906
862.399	60.94819
862.581	23.00695
862.764	-46.53192
862.947	-61.27913
863.129	-33.89048
863.312	-12.81942
863.494	63.05626
863.677	54.62413
863.859	18.79172
864.042	-21.24814
864.224	4.03918
864.406	33.54542
864.589	-42.31821
864.771	-8.60492
864.954	8.25407
865.136	-33.89048
865.318	29.32996
865.501	-35.99745
865.683	18.79172
865.865	63.05626
866.048	-29.67646
866.23	-21.24814
866.412	71.48875
866.594	-38.10439
866.777	37.76098
866.959	-21.24814
867.141	-6.49763
867.323	41.97663
867.505	-25.46235
867.687	-46.53192
867.869	-29.67646
868.052	-4.39031
868.234	-29.67646
868.416	16.68414
868.598	-54.95905
868.78	20.89932
868.962	-21.24814
869.144	-12.81942
869.326	4.03918
869.508	27.22227
869.69	8.25407
869.872	16.68414
870.054	-2.28298
870.236	18.79172
870.417	84.13817
870.599	-21.24814
870.781	-50.74553
870.963	39.86879
871.145	-21.24814
871.327	-4.39031
871.508	-29.67646
871.69	-57.06577
871.872	1.93177
872.054	-17.03383
872.235	12.46906
872.417	39.86879
872.599	20.89932
872.78	41.97663
872.962	23.00695
873.144	-0.17561
873.325	-29.67646
873.507	-12.81942
873.689	60.94819
873.87	46.19237
874.052	-21.24814
874.233	14.57659
874.415	12.46906
874.596	-38.10439
874.778	-8.60492
874.959	23.00695
875.141	29.32996
875.322	33.54542
875.503	-17.03383
875.685	-33.89048
875.866	-38.10439
876.048	-35.99745
876.229	63.05626
876.41	58.84015
876.592	-29.67646
876.773	-0.17561
876.954	-86.55716
877.136	16.68414
877.317	37.76098
877.498	16.68414
877.679	-103.40711
877.86	79.92161
878.042	-35.99745
878.223	23.00695
878.404	-0.17561
878.585	-21.24814
878.766	63.05626
878.947	-35.99745
879.128	-29.67646
879.309	-12.81942
879.49	-78.13156
879.672	6.14661
879.853	-4.39031
880.034	-82.34441
880.215	6.14661
880.396	-17.03383
880.576	58.84015
880.757	-19.141
880.938	-71.81209
881.119	12.46906
881.3	-4.39031
881.481	73.59693
881.662	12.46906
881.843	-10.71218
882.023	-17.03383
882.204	-27.56942
882.385	54.62413
882.566	67.27246
882.747	29.32996
882.927	-21.24814
883.108	27.22227
883.289	-59.17246
883.469	-29.67646
883.65	71.48875
883.831	-6.49763
884.011	33.54542
884.192	-12.81942
884.373	-4.39031
884.553	-4.39031
884.734	50.4082
884.914	-50.74553
885.095	-25.46235
885.275	63.05626
885.456	-42.31821
885.636	-14.92664
885.817	-42.31821
885.997	58.84015
886.178	29.32996
886.358	-23.35526
886.538	35.65319
886.719	-0.17561
886.899	-46.53192
887.08	6.14661
887.26	56.73213
887.44	39.86879
887.621	12.46906
887.801	25.11459
887.981	1.93177
888.161	-80.238
888.342	-71.81209
888.522	-23.35526
888.702	-40.21131
888.882	-19.141
889.062	-54.95905
889.242	23.00695
889.423	31.43768
889.603	29.32996
889.783	58.84015
889.963	-10.71218
890.143	16.68414
890.323	4.03918
890.503	-44.42508
890.683	6.14661
890.863	33.54542
891.043	6.14661
891.223	-71.81209
891.403	16.68414
891.583	16.68414
891.763	4.03918
891.943	-12.81942
892.122	-10.71218
892.302	20.89932
892.482	23.00695
892.662	-2.28298
892.842	16.68414
893.022	41.97663
893.201	50.4082
893.381	60.94819
893.561	6.14661
893.741	-38.10439
893.92	46.19237
894.1	1.93177
894.28	-10.71218
894.459	8.25407
894.639	1.93177
894.819	16.68414
894.998	-12.81942
895.178	31.43768
895.357	8.25407
895.537	1.93177
895.716	-54.95905
895.896	37.76098
896.075	-44.42508
896.255	-40.21131
896.434	-29.67646
896.614	90.46319
896.793	39.86879
896.973	-12.81942
897.152	4.03918
897.331	16.68414
897.511	-97.08857
897.69	29.32996
897.87	52.51615
898.049	-0.17561
898.228	54.62413
898.407	27.22227
898.587	48.30027
898.766	-63.38577
898.945	54.62413
899.124	67.27246
899.304	8.25407
899.483	-14.92664
899.662	-12.81942
899.841	-12.81942
900.02	20.89932
900.199	23.00695
900.378	-27.56942
900.557	-2.28298
900.737	44.08449
900.916	-54.95905
901.095	31.43768
901.274	-17.03383
901.453	-42.31821
901.632	-33.89048
901.811	-57.06577
901.989	25.11459
902.168	16.68414
902.347	-21.24814
902.526	39.86879
902.705	14.57659
902.884	37.76098
903.063	35.65319
903.242	44.08449
903.42	-8.60492
903.599	25.11459
903.778	113.65661
903.957	-8.60492
904.135	46.19237
904.314	-6.49763
904.493	-29.67646
904.672	27.22227
904.85	-21.24814
905.029	-23.35526
905.207	48.30027
905.386	-54.95905
905.565	20.89932
905.743	37.76098
905.922	58.84015
906.1	23.00695
906.279	-63.38577
906.457	-21.24814
906.636	31.43768
906.814	52.51615
906.993	-54.95905
907.171	-71.81209
907.35	63.05626
907.528	-99.19478
907.707	-54.95905
907.885	48.30027
908.063	65.16435
908.242	-4.39031
908.42	-12.81942
908.598	-44.42508
908.777	-0.17561
908.955	-21.24814
909.133	-23.35526
909.311	23.00695
909.49	-29.67646
909.668	44.08449
909.846	-17.03383
910.024	-23.35526
910.202	46.19237
910.38	6.14661
910.559	39.86879
910.737	35.65319
910.915	25.11459
911.093	44.08449
911.271	-137.10195
911.449	109.43943
911.627	-63.38577
911.805	12.46906
911.983	-44.42508
912.161	-4.39031
912.339	-0.17561
912.517	8.25407
912.695	37.76098
912.872	46.19237
913.05	-17.03383
913.228	-21.24814
913.406	-38.10439
913.584	39.86879
913.762	-88.66349
913.939	31.43768
914.117	14.57659
914.295	23.00695
914.473	-12.81942
914.65	20.89932
914.828	44.08449
915.006	20.89932
915.184	-12.81942
915.361	48.30027
915.539	-33.89048
915.716	-17.03383
915.894	-19.141
916.072	-10.71218
916.249	20.89932
916.427	-10.71218
916.604	-50.74553
916.782	8.25407
916.959	-61.27913
917.137	-27.56942
917.314	-63.38577
917.492	-14.92664
917.669	6.14661
917.847	-25.46235
918.024	-35.99745
918.201	-44.42508
918.379	79.92161
918.556	54.62413
918.733	18.79172
918.911	-25.46235
919.088	-10.71218
919.265	-42.31821
919.442	-17.03383
919.62	-19.141
919.797	60.94819
919.974	12.46906
920.151	29.32996
920.328	8.25407
920.506	33.54542
920.683	37.76098
920.86	-63.38577
921.037	-8.60492
921.214	4.03918
921.391	4.03918
921.568	1.93177
921.745	-14.92664
921.922	-10.71218
922.099	-21.24814
922.276	54.62413
922.453	-48.63874
922.63	20.89932
922.807	-10.71218
922.984	8.25407
923.161	-19.141
923.338	16.68414
923.514	10.36155
923.691	-23.35526
923.868	-4.39031
924.045	-71.81209
924.222	20.89932
924.399	4.03918
924.575	31.43768
924.752	25.11459
924.929	29.32996
925.105	-31.78348
925.282	41.97663
925.459	-21.24814
925.635	-2.28298
925.812	-6.49763
925.989	25.11459
926.165	-27.56942
926.342	73.59693
926.518	14.57659
926.695	12.46906
926.871	31.43768
927.048	-31.78348
927.224	-54.95905
927.401	-17.03383
927.577	-12.81942
927.754	16.68414
927.93	37.76098
928.107	8.25407
928.283	31.43768
928.459	12.46906
928.636	-61.27913
928.812	33.54542
928.988	18.79172
929.165	10.36155
929.341	12.46906
929.517	14.57659
929.693	-12.81942
929.87	46.19237
930.046	84.13817
930.222	12.46906
930.398	67.27246
930.574	-54.95905
930.751	8.25407
930.927	12.46906
931.103	33.54542
931.279	-67.59898
931.455	33.54542
931.631	-23.35526
931.807	16.68414
931.983	-14.92664
932.159	-25.46235
932.335	35.65319
932.511	44.08449
932.687	54.62413
932.863	-0.17561
933.039	50.4082
933.215	16.68414
933.391	-8.60492
933.566	-44.42508
933.742	-71.81209
933.918	-92.87609
934.094	-14.92664
934.27	41.97663
934.445	8.25407
934.621	69.38059
934.797	44.08449
934.973	12.46906
935.148	63.05626
935.324	-82.34441
935.5	73.59693
935.675	-12.81942
935.851	-12.81942
936.027	-10.71218
936.202	-44.42508
936.378	-21.24814
936.553	-25.46235
936.729	-19.141
936.904	46.19237
937.08	46.19237
937.255	-57.06577
937.431	-6.49763
937.606	23.00695
937.782	-71.81209
937.957	33.54542
938.133	-0.17561
938.308	-17.03383
938.483	-61.27913
938.659	25.11459
938.834	-0.17561
939.009	-4.39031
939.185	46.19237
939.36	-61.27913
939.535	-19.141
939.71	37.76098
939.886	-33.89048
940.061	-29.67646
940.236	-33.89048
940.411	-0.17561
940.586	-38.10439
940.761	-8.60492
940.937	-48.63874
941.112	-4.39031
941.287	-12.81942
941.462	52.51615
941.637	27.22227
941.812	23.00695
941.987	-10.71218
942.162	4.03918
942.337	8.25407
942.512	23.00695
942.687	-50.74553
942.862	39.86879
943.037	-17.03383
943.212	-52.8523
943.386	10.36155
943.561	-10.71218
943.736	39.86879
943.911	-23.35526
944.086	8.25407
944.26	-80.238
944.435	-67.59898
944.61	31.43768
944.785	-84.4508
944.959	-33.89048
945.134	39.86879
945.309	46.19237
945.483	20.89932
945.658	96.7884
945.833	1.93177
946.007	63.05626
946.182	-50.74553
946.357	8.25407
946.531	46.19237
946.706	-17.03383
946.88	4.03918
947.055	56.73213
947.229	-29.67646
947.404	67.27246
947.578	84.13817
947.752	-29.67646
947.927	33.54542
948.101	67.27246
948.276	10.36155
948.45	-35.99745
948.624	-69.70555
948.799	20.89932
948.973	39.86879
949.147	-63.38577
949.321	41.97663
949.496	46.19237
949.67	52.51615
949.844	-4.39031
950.018	-94.98234
950.193	27.22227
950.367	23.00695
950.541	14.57659
950.715	-38.10439
950.889	46.19237
951.063	-10.71218
951.237	12.46906
951.411	-29.67646
951.585	-116.04347
951.759	4.03918
951.933	39.86879
952.107	-54.95905
952.281	6.14661
952.455	56.73213
952.629	-35.99745
952.803	-21.24814
952.977	35.65319
953.151	25.11459
953.325	-12.81942
953.499	23.00695
953.672	44.08449
953.846	-61.27913
954.02	31.43768
954.194	-40.21131
954.368	-63.38577
954.541	-21.24814
954.715	54.62413
954.889	-35.99745
955.062	-14.92664
955.236	-25.46235
955.41	-4.39031
955.583	-29.67646
955.757	23.00695
955.93	16.68414
956.104	-27.56942
956.278	-27.56942
956.451	12.46906
956.625	-48.63874
956.798	39.86879
956.972	6.14661
957.145	14.57659
957.319	-2.28298
957.492	1.93177
957.665	27.22227
957.839	-25.46235
958.012	25.11459
958.185	-4.39031
958.359	20.89932
958.532	-8.60492
958.705	12.46906
958.879	39.86879
959.052	4.03918
959.225	-21.24814
959.398	-4.39031
959.572	-90.7698
959.745	16.68414
959.918	-10.71218
960.091	-14.92664
960.264	46.19237
960.438	29.32996
960.611	69.38059
960.784	-46.53192
960.957	-44.42508
961.13	46.19237
961.303	-6.49763
961.476	-4.39031
961.649	-46.53192
961.822	-4.39031
961.995	37.76098
962.168	25.11459
962.341	-67.59898
962.514	-44.42508
962.686	-57.06577
962.859	12.46906
963.032	23.00695
963.205	-40.21131
963.378	-8.60492
963.551	12.46906
963.723	23.00695
963.896	-17.03383
964.069	12.46906
964.242	4.03918
964.414	25.11459
964.587	-4.39031
964.76	41.97663
964.932	-76.0251
965.105	-2.28298
965.278	1.93177
965.45	-10.71218
965.623	4.03918
965.795	-0.17561
965.968	-4.39031
966.14	4.03918
966.313	16.68414
966.485	12.46906
966.658	29.32996
966.83	-31.78348
967.003	18.79172
967.175	27.22227
967.348	23.00695
967.52	23.00695
967.692	4.03918
967.865	33.54542
968.037	-38.10439
968.209	-17.03383
968.382	1.93177
968.554	-4.39031
968.726	23.00695
968.898	39.86879
969.071	-50.74553
969.243	-86.55716
969.415	-19.141
969.587	35.65319
969.759	-17.03383
969.932	-63.38577
970.104	-103.40711
970.276	-8.60492
970.448	-12.81942
970.62	25.11459
970.792	-10.71218
970.964	-12.81942
971.136	6.14661
971.308	-10.71218
971.48	29.32996
971.652	37.76098
971.824	-25.46235
971.996	-71.81209
972.168	31.43768
972.339	4.03918
972.511	-27.56942
972.683	-8.60492
972.855	-65.49239
973.027	8.25407
973.199	-14.92664
973.37	-71.81209
973.542	-17.03383
973.714	10.36155
973.886	71.48875
974.057	-12.81942
974.229	23.00695
974.401	37.76098
974.572	-19.141
974.744	25.11459
974.915	-4.39031
975.087	25.11459
975.259	-23.35526
975.43	4.03918
975.602	4.03918
975.773	39.86879
975.945	8.25407
976.116	35.65319
976.288	25.11459
976.459	-29.67646
976.63	1.93177
976.802	37.76098
976.973	-27.56942
977.145	29.32996
977.316	-59.17246
977.487	35.65319
977.659	4.03918
977.83	29.32996
978.001	-46.53192
978.172	35.65319
978.344	-42.31821
978.515	63.05626
978.686	41.97663
978.857	18.79172
979.028	-21.24814
979.2	-101.30096
979.371	-12.81942
979.542	12.46906
979.713	33.54542
979.884	-29.67646
980.055	12.46906
980.226	14.57659
980.397	-2.28298
980.568	-19.141
980.739	-0.17561
980.91	14.57659
981.081	12.46906
981.252	-46.53192
981.423	56.73213
981.594	-42.31821
981.765	-8.60492
981.936	-14.92664
982.106	-23.35526
982.277	-25.46235
982.448	-0.17561
982.619	-44.42508
982.79	25.11459
982.96	-0.17561
983.131	-21.24814
983.302	-44.42508
983.472	-84.4508
983.643	1.93177
983.814	-12.81942
983.984	-8.60492
984.155	-12.81942
984.326	-8.60492
984.496	-42.31821
984.667	20.89932
984.837	-0.17561
985.008	-19.141
985.178	20.89932
985.349	-42.31821
985.519	4.03918
985.69	65.16435
985.86	-12.81942
986.031	31.43768
986.201	-4.39031
986.371	14.57659
986.542	29.32996
986.712	33.54542
986.882	4.03918
987.053	-0.17561
987.223	25.11459
987.393	-71.81209
987.563	4.03918
987.734	44.08449
987.904	-42.31821
988.074	-52.8523
988.244	-21.24814
988.414	-25.46235
988.585	-29.67646
988.755	-27.56942
988.925	25.11459
989.095	-0.17561
989.265	-2.28298
989.435	-4.39031
989.605	-27.56942
989.775	-17.03383
989.945	-23.35526
990.115	65.16435
990.285	54.62413
990.455	20.89932
990.625	1.93177
990.795	-29.67646
990.965	-50.74553
991.134	-4.39031
991.304	18.79172
991.474	-27.56942
991.644	20.89932
991.814	-10.71218
991.984	-29.67646
992.153	-63.38577
992.323	-2.28298
992.493	84.13817
992.662	-67.59898
992.832	-12.81942
993.002	31.43768
993.171	-2.28298
993.341	-4.39031
993.511	-29.67646
993.68	-25.46235
993.85	-8.60492
994.019	-54.95905
994.189	18.79172
994.358	8.25407
994.528	-12.81942
994.697	29.32996
994.867	-17.03383
995.036	14.57659
995.206	-76.0251
995.375	-63.38577
995.544	14.57659
995.714	56.73213
995.883	6.14661
996.052	-29.67646
996.222	-38.10439
996.391	-46.53192
996.56	12.46906
996.73	-10.71218
996.899	88.35483
997.068	-42.31821
997.237	-82.34441
997.406	82.02988
997.576	-2.28298
997.745	37.76098
997.914	-50.74553
998.083	10.36155
998.252	16.68414
998.421	23.00695
998.59	-8.60492
998.759	-42.31821
998.928	-21.24814
999.097	4.03918
999.266	-4.39031
999.435	-2.28298
999.604	4.03918
999.773	-21.24814
999.942	-27.56942
1000.111	23.00695
1000.28	6.14661
1000.448	1.93177
1000.617	-40.21131
1000.786	-17.03383
1000.955	-31.78348
1001.124	-54.95905
1001.292	-33.89048
1001.461	-42.31821
1001.63	-40.21131
1001.798	16.68414
1001.967	-12.81942
1002.136	41.97663
1002.304	37.76098
1002.473	-40.21131
1002.642	-2.28298
1002.81	-12.81942
1002.979	8.25407
1003.147	48.30027
1003.316	14.57659
1003.484	1.93177
1003.653	-35.99745
1003.821	-21.24814
1003.99	-0.17561
1004.158	4.03918
1004.327	-0.17561
1004.495	-25.46235
1004.663	39.86879
1004.832	46.19237
1005	-57.06577
1005.168	4.03918
1005.337	18.79172
1005.505	-17.03383
1005.673	16.68414
1005.842	-12.81942
1006.01	-59.17246
1006.178	-42.31821
1006.346	4.03918
1006.514	-63.38577
1006.683	-21.24814
1006.851	-19.141
1007.019	-29.67646
1007.187	-63.38577
1007.355	23.00695
1007.523	-4.39031
1007.691	10.36155
1007.859	-27.56942
1008.027	44.08449
1008.195	29.32996
1008.363	12.46906
1008.531	-50.74553
1008.699	16.68414
1008.867	-12.81942
1009.035	16.68414
1009.203	-17.03383
1009.37	-10.71218
1009.538	37.76098
1009.706	12.46906
1009.874	-38.10439
1010.042	-33.89048
1010.209	-4.39031
1010.377	-4.39031
1010.545	-44.42508
1010.713	-19.141
1010.88	-0.17561
1011.048	-8.60492
1011.216	4.03918
1011.383	12.46906
1011.551	-46.53192
1011.718	4.03918
1011.886	6.14661
1012.054	-0.17561
1012.221	50.4082
1012.389	-4.39031
1012.556	-0.17561
1012.724	-19.141
1012.891	-12.81942
1013.058	-10.71218
1013.226	46.19237
1013.393	20.89932
1013.561	-17.03383
1013.728	58.84015
1013.895	25.11459
1014.063	-33.89048
1014.23	-10.71218
1014.397	14.57659
1014.565	8.25407
1014.732	14.57659
1014.899	63.05626
1015.066	8.25407
1015.233	-10.71218
1015.401	12.46906
1015.568	-12.81942
1015.735	-23.35526
1015.902	20.89932
1016.069	41.97663
1016.236	31.43768
1016.403	29.32996
1016.57	39.86879
1016.737	8.25407
1016.904	-21.24814
1017.071	-46.53192
1017.238	37.76098
1017.405	12.46906
1017.572	25.11459
1017.739	-38.10439
1017.906	-29.67646
1018.073	-27.56942
1018.24	12.46906
1018.407	33.54542
1018.573	-19.141
1018.74	46.19237
1018.907	-59.17246
1019.074	50.4082
1019.241	-29.67646
1019.407	-10.71218
1019.574	-46.53192
1019.741	-17.03383
1019.907	12.46906
1020.074	-38.10439
1020.241	75.70514
1020.407	25.11459
1020.574	56.73213
1020.74	37.76098
1020.907	23.00695
1021.073	-12.81942
1021.24	14.57659
1021.406	4.03918
1021.573	-46.53192
1021.739	52.51615
1021.906	-25.46235
1022.072	-0.17561
1022.239	-21.24814
1022.405	-38.10439
1022.571	31.43768
1022.738	-8.60492
1022.904	14.57659
1023.07	-19.141
1023.237	-21.24814
1023.403	-12.81942
1023.569	-10.71218
1023.735	-12.81942
1023.902	-29.67646
1024.068	82.02988
1024.234	-46.53192
1024.4	8.25407
1024.566	-21.24814
1024.732	48.30027
1024.898	4.03918
1025.065	-12.81942
1025.231	4.03918
1025.397	-67.59898
1025.563	35.65319
1025.729	-29.67646
1025.895	-4.39031
1026.061	33.54542
1026.227	-33.89048
1026.392	10.36155
1026.558	-29.67646
1026.724	16.68414
1026.89	4.03918
1027.056	1.93177
1027.222	-113.93748
1027.388	18.79172
1027.553	-2.28298
1027.719	-33.89048
1027.885	-19.141
1028.051	73.59693
1028.216	1.93177
1028.382	4.03918
1028.548	20.89932
1028.713	8.25407
1028.879	16.68414
1029.045	41.97663
1029.21	25.11459
1029.376	4.03918
1029.541	-0.17561
1029.707	46.19237
1029.873	-78.13156
1030.038	48.30027
1030.204	25.11459
1030.369	-78.13156
1030.534	23.00695
1030.7	14.57659
1030.865	23.00695
1031.031	27.22227
1031.196	75.70514
1031.361	29.32996
1031.527	-21.24814
1031.692	41.97663
1031.857	-14.92664
1032.023	37.76098
1032.188	-4.39031
1032.353	-17.03383
1032.518	33.54542
1032.684	-6.49763
1032.849	-38.10439
1033.014	-6.49763
1033.179	1.93177
1033.344	63.05626
1033.509	-23.35526
1033.674	20.89932
1033.839	-27.56942
1034.004	-42.31821
1034.17	-54.95905
1034.335	20.89932
1034.5	31.43768
1034.664	-29.67646
1034.829	25.11459
1034.994	-12.81942
1035.159	12.46906
1035.324	-12.81942
1035.489	-17.03383
1035.654	27.22227
1035.819	-25.46235
1035.984	37.76098
1036.148	8.25407
1036.313	-76.0251
1036.478	-12.81942
1036.643	-0.17561
1036.807	48.30027
1036.972	12.46906
1037.137	-6.49763
1037.301	54.62413
1037.466	-27.56942
1037.631	-0.17561
1037.795	10.36155
1037.96	25.11459
1038.124	63.05626
1038.289	-2.28298
1038.454	33.54542
1038.618	41.97663
1038.783	60.94819
1038.947	-61.27913
1039.111	-46.53192
1039.276	-42.31821
1039.44	-0.17561
1039.605	-35.99745
1039.769	46.19237
1039.933	-4.39031
1040.098	-44.42508
1040.262	33.54542
1040.426	1.93177
1040.591	-21.24814
1040.755	-4.39031
1040.919	-0.17561
1041.083	-38.10439
1041.248	41.97663
1041.412	10.36155
1041.576	-12.81942
1041.74	50.4082
1041.904	14.57659
1042.068	12.46906
1042.232	8.25407
1042.397	-33.89048
1042.561	4.03918
1042.725	48.30027
1042.889	29.32996
1043.053	39.86879
1043.217	4.03918
1043.381	-4.39031
1043.544	54.62413
1043.708	-12.81942
1043.872	39.86879
1044.036	23.00695
1044.2	-46.53192
1044.364	79.92161
1044.528	4.03918
1044.691	-42.31821
1044.855	90.46319
1045.019	-31.78348
1045.183	12.46906
1045.346	8.25407
1045.51	-21.24814
1045.674	25.11459
1045.837	-65.49239
1046.001	-25.46235
1046.165	-25.46235
1046.328	-38.10439
1046.492	-21.24814
1046.655	-12.81942
1046.819	-17.03383
1046.983	25.11459
1047.146	-21.24814
1047.31	14.57659
1047.473	-8.60492
1047.636	-54.95905
1047.8	-38.10439
1047.963	67.27246
1048.127	73.59693
1048.29	-4.39031
