Data from mixed_try1_USB4F045381__4__00026.txt Node

Date: Thu Apr 03 19:32:16 EDT 2025
User: mmckonesweet
Spectrometer: USB4F04538
Trigger mode: 4
Integration Time (sec): 2.700000E-3
Scans to average: 1
Electric dark correction enabled: true
Nonlinearity correction enabled: true
Boxcar width: 0
XAxis mode: Wavelengths
Number of Pixels in Spectrum: 3648
>>>>>Begin Spectral Data<<<<<
345.52	68.85356
345.736	68.85356
345.952	68.85356
346.168	58.31314
346.384	-7.02445
346.6	11.94218
346.816	-74.44523
347.032	60.42118
347.248	54.09713
347.464	9.83468
347.68	47.77329
347.896	-32.31023
348.112	3.51233
348.328	-38.63112
348.544	-7.02445
348.76	-53.37899
348.975	18.26482
349.191	-55.48573
349.407	-19.66778
349.623	16.15725
349.839	-38.63112
350.055	7.72721
350.27	1.40492
350.486	-38.63112
350.702	-49.16544
350.918	30.91075
351.133	1.40492
351.349	35.12624
351.565	3.51233
351.781	-32.31023
351.996	-13.34623
352.212	3.51233
352.428	-2.80981
352.644	60.42118
352.859	35.12624
353.075	85.71941
353.291	73.06989
353.506	26.69535
353.722	-0.70246
353.938	-28.09618
354.153	51.98916
354.369	-55.48573
354.584	5.61975
354.8	-53.37899
355.016	9.83468
355.231	45.6654
355.447	-9.13173
355.662	-32.31023
355.878	-32.31023
356.093	-13.34623
356.309	-59.69913
356.524	-0.70246
356.74	41.44967
356.955	1.40492
357.171	-2.80981
357.386	43.55752
357.602	47.77329
357.817	35.12624
358.033	37.23403
358.248	26.69535
358.464	73.06989
358.679	3.51233
358.895	28.80304
359.11	3.51233
359.325	-47.05863
359.541	11.94218
359.756	-19.66778
359.972	35.12624
360.187	-76.55171
360.402	-47.05863
360.618	-7.02445
360.833	68.85356
361.048	-30.20322
361.264	-13.34623
361.479	39.34183
361.694	22.48004
361.909	-32.31023
362.125	11.94218
362.34	45.6654
362.555	35.12624
362.77	9.83468
362.986	-2.80981
363.201	-17.56062
363.416	-23.88203
363.631	-17.56062
363.847	-49.16544
364.062	111.02086
364.277	-68.12563
364.492	68.85356
364.707	-38.63112
364.922	-44.95179
365.138	-47.05863
365.353	-21.77492
365.568	64.63732
365.783	1.40492
365.998	-74.44523
366.213	-36.52418
366.428	-4.91714
366.643	56.20513
366.858	62.52924
367.073	-11.23899
367.288	9.83468
367.503	9.83468
367.718	37.23403
367.933	-11.23899
368.148	-4.91714
368.363	-7.02445
368.578	7.72721
368.793	39.34183
369.008	22.48004
369.223	-63.91243
369.438	9.83468
369.653	-23.88203
369.868	-15.45344
370.083	3.51233
370.298	22.48004
370.513	-36.52418
370.728	9.83468
370.943	43.55752
371.157	-23.88203
371.372	-17.56062
371.587	54.09713
371.802	11.94218
372.017	35.12624
372.232	-21.77492
372.446	-38.63112
372.661	-15.45344
372.876	-34.41722
373.091	35.12624
373.306	26.69535
373.52	-4.91714
373.735	75.17808
373.95	-4.91714
374.165	60.42118
374.379	18.26482
374.594	68.85356
374.809	51.98916
375.023	20.37242
375.238	1.40492
375.453	-103.93364
375.667	-19.66778
375.882	-4.91714
376.097	-15.45344
376.311	-23.88203
376.526	-34.41722
376.741	77.2863
376.955	3.51233
377.17	-4.91714
377.384	-80.7646
377.599	26.69535
377.813	-7.02445
378.028	-49.16544
378.242	5.61975
378.457	-19.66778
378.672	60.42118
378.886	26.69535
379.101	7.72721
379.315	-49.16544
379.53	1.40492
379.744	-61.80579
379.958	-44.95179
380.173	9.83468
380.387	70.96171
380.602	-21.77492
380.816	9.83468
381.031	51.98916
381.245	-4.91714
381.459	-53.37899
381.674	-30.20322
381.888	-11.23899
382.103	-23.88203
382.317	-13.34623
382.531	45.6654
382.746	45.6654
382.96	-4.91714
383.174	-49.16544
383.388	49.88122
383.603	-51.27223
383.817	-25.98912
384.031	-49.16544
384.246	-91.29638
384.46	-44.95179
384.674	22.48004
384.888	-30.20322
385.103	3.51233
385.317	-4.91714
385.531	56.20513
385.745	56.20513
385.959	-23.88203
386.174	39.34183
386.388	-23.88203
386.602	-72.33872
386.816	30.91075
387.03	1.40492
387.244	22.48004
387.458	-15.45344
387.672	-21.77492
387.887	-30.20322
388.101	37.23403
388.315	22.48004
388.529	35.12624
388.743	1.40492
388.957	16.15725
389.171	-21.77492
389.385	60.42118
389.599	62.52924
389.813	51.98916
390.027	-44.95179
390.241	-21.77492
390.455	26.69535
390.669	14.04971
390.883	28.80304
391.097	85.71941
391.311	-25.98912
391.525	9.83468
391.738	43.55752
391.952	68.85356
392.166	-11.23899
392.38	3.51233
392.594	-13.34623
392.808	49.88122
393.022	45.6654
393.236	85.71941
393.449	-40.73804
393.663	20.37242
393.877	56.20513
394.091	18.26482
394.305	7.72721
394.518	43.55752
394.732	102.58669
394.946	94.15287
395.16	39.34183
395.373	-32.31023
395.587	54.09713
395.801	-19.66778
396.015	-42.84492
396.228	35.12624
396.442	26.69535
396.656	77.2863
396.869	64.63732
397.083	33.01848
397.297	26.69535
397.51	111.02086
397.724	18.26482
397.938	11.94218
398.151	22.48004
398.365	-32.31023
398.578	45.6654
398.792	60.42118
399.005	-13.34623
399.219	-32.31023
399.433	-91.29638
399.646	-11.23899
399.86	45.6654
400.073	64.63732
400.287	11.94218
400.5	18.26482
400.714	-15.45344
400.927	9.83468
401.141	-55.48573
401.354	60.42118
401.567	47.77329
401.781	22.48004
401.994	85.71941
402.208	45.6654
402.421	7.72721
402.635	26.69535
402.848	60.42118
403.061	-0.70246
403.275	43.55752
403.488	81.50281
403.701	9.83468
403.915	14.04971
404.128	-13.34623
404.341	1.40492
404.555	11.94218
404.768	26.69535
404.981	37.23403
405.195	-15.45344
405.408	18.26482
405.621	43.55752
405.834	11.94218
406.048	81.50281
406.261	62.52924
406.474	66.74543
406.687	-19.66778
406.9	58.31314
407.114	60.42118
407.327	83.6111
407.54	58.31314
407.753	-32.31023
407.966	-0.70246
408.179	35.12624
408.392	64.63732
408.605	-7.02445
408.819	43.55752
409.032	14.04971
409.245	-49.16544
409.458	79.39455
409.671	28.80304
409.884	35.12624
410.097	37.23403
410.31	20.37242
410.523	51.98916
410.736	30.91075
410.949	56.20513
411.162	-13.34623
411.375	7.72721
411.588	-15.45344
411.801	16.15725
412.014	73.06989
412.227	-11.23899
412.44	43.55752
412.653	102.58669
412.865	1.40492
413.078	62.52924
413.291	56.20513
413.504	70.96171
413.717	28.80304
413.93	35.12624
414.143	24.58768
414.356	30.91075
414.568	11.94218
414.781	60.42118
414.994	68.85356
415.207	70.96171
415.42	66.74543
415.632	39.34183
415.845	39.34183
416.058	68.85356
416.271	22.48004
416.483	115.23808
416.696	7.72721
416.909	87.82774
417.121	68.85356
417.334	68.85356
417.547	77.2863
417.759	37.23403
417.972	35.12624
418.185	98.36974
418.397	73.06989
418.61	77.2863
418.823	73.06989
419.035	43.55752
419.248	5.61975
419.46	81.50281
419.673	47.77329
419.885	47.77329
420.098	102.58669
420.311	115.23808
420.523	47.77329
420.736	5.61975
420.948	138.43433
421.161	119.45538
421.373	106.80373
421.586	26.69535
421.798	102.58669
422.01	153.19692
422.223	89.9361
422.435	98.36974
422.648	1.40492
422.86	161.63315
423.073	127.89025
423.285	98.36974
423.497	64.63732
423.71	113.12946
423.922	64.63732
424.134	102.58669
424.347	174.28813
424.559	73.06989
424.771	68.85356
424.984	3.51233
425.196	77.2863
425.408	83.6111
425.621	70.96171
425.833	111.02086
426.045	94.15287
426.257	195.3814
426.47	115.23808
426.682	138.43433
426.894	159.52406
427.106	79.39455
427.318	81.50281
427.531	134.21663
427.743	121.56407
427.955	136.32547
428.167	157.41499
428.379	119.45538
428.591	144.76102
428.804	127.89025
429.016	212.25747
429.228	113.12946
429.44	195.3814
429.652	153.19692
429.864	155.30595
430.076	229.13482
430.288	205.9288
430.5	144.76102
430.712	104.6952
430.924	184.83451
431.136	161.63315
431.348	144.76102
431.56	132.10782
431.772	193.27198
431.984	161.63315
432.196	191.16258
432.408	283.99475
432.62	254.45319
432.832	197.49084
433.044	193.27198
433.256	146.86997
433.468	193.27198
433.679	298.76691
433.891	161.63315
434.103	220.69599
434.315	239.6838
434.527	170.06972
434.739	214.36707
434.95	298.76691
435.162	267.11341
435.374	313.53995
435.586	252.34322
435.798	246.01343
436.009	305.0981
436.221	239.6838
436.433	246.01343
436.645	269.22351
436.856	383.19595
437.068	262.89326
437.28	271.33363
437.491	275.55393
437.703	347.3102
437.915	237.57397
438.126	326.20327
438.338	305.0981
438.55	317.76099
438.761	250.23327
438.973	309.31899
439.184	307.20854
439.396	387.41813
439.608	279.77431
439.819	450.75854
440.031	288.21528
440.242	330.42451
440.454	340.97794
440.665	372.64081
440.877	372.64081
441.088	374.75181
441.3	450.75854
441.511	414.86386
441.723	313.53995
441.934	334.64583
442.146	427.53205
442.357	465.54001
442.569	412.75256
442.78	440.20081
442.991	406.41873
443.203	431.75491
443.414	389.52924
443.626	450.75854
443.837	492.99327
444.048	516.2249
444.26	512.00084
444.471	364.197
444.682	560.58096
444.894	465.54001
445.105	452.87013
445.316	497.21707
445.528	473.9869
445.739	556.35631
445.95	484.54585
446.161	520.44902
446.373	579.59254
446.584	552.13172
446.795	554.24401
447.006	473.9869
447.217	501.44093
447.429	450.75854
447.64	619.73158
447.851	583.81748
448.062	602.83037
448.273	564.80566
448.484	653.53639
448.695	592.26753
448.907	611.28088
449.118	704.24928
449.329	583.81748
449.54	668.32696
449.751	518.33696
449.962	782.44397
450.173	543.68269
450.384	700.02295
450.595	746.51491
450.806	714.81528
451.017	788.78469
451.228	818.37586
451.439	761.30888
451.65	752.85512
451.861	769.7628
452.072	845.85499
452.283	719.04176
452.494	955.7856
452.705	862.76597
452.915	786.67111
453.126	902.93169
453.337	883.90545
453.548	936.75766
453.759	905.04575
453.97	976.92843
454.181	1036.13182
454.391	900.81763
454.602	1002.30071
454.813	921.95856
455.024	1114.37177
455.235	877.56352
455.445	1010.75834
455.656	1076.30819
455.867	1103.79839
456.078	1059.39158
456.288	1095.33978
456.499	1010.75834
456.71	1076.30819
456.921	1116.48645
457.131	1129.17468
457.342	1173.58471
457.553	1091.1105
457.763	1167.24031
457.974	1237.03044
458.184	1247.60501
458.395	1429.49528
458.606	1217.99641
458.816	1463.33611
459.027	1353.35386
459.237	1372.38911
459.448	1583.893
459.659	1433.72538
459.869	1607.1579
460.08	1615.6178
460.29	1634.65246
460.501	1645.22719
460.711	1598.69796
460.922	1480.25652
461.132	1740.39667
461.343	1683.29571
461.553	1759.42978
461.764	1784.80677
461.974	1672.72121
462.184	1761.54455
462.395	1983.56959
462.605	2015.28241
462.816	1725.59295
463.026	2032.19531
463.236	2095.61472
463.447	2133.66317
463.657	1869.39225
463.867	2454.84783
464.078	2190.73104
464.288	2186.504
464.498	2435.83666
464.709	2235.11294
464.919	2087.15917
465.129	2254.13257
465.339	2549.89017
465.55	2431.61184
465.76	2488.64328
465.97	2427.38697
466.18	2537.21919
466.391	2836.97858
466.601	2598.45831
466.811	2915.04042
467.021	2689.24224
467.231	3075.32026
467.441	2828.5383
467.651	3153.31884
467.862	3050.01877
468.072	3288.18261
468.282	2984.64633
468.492	3146.99545
468.702	3357.69472
468.912	3494.55663
469.122	3187.04114
469.332	3496.6616
469.542	3704.96245
469.752	3789.07153
469.962	3633.44553
470.172	3776.45715
470.382	3961.39645
470.592	3946.69106
470.802	3833.21628
471.012	4003.40637
471.222	4070.60516
471.432	4211.23356
471.642	4181.85633
471.852	4303.53484
472.062	4307.72937
472.272	4444.00432
472.482	4563.43081
472.691	4787.42167
472.901	4634.63334
473.111	4739.29587
473.321	4919.18287
473.531	5078.01165
473.741	4963.08308
473.95	5034.13808
474.16	4977.71423
474.37	5261.75139
474.58	5518.26594
474.79	5526.6019
474.999	5336.86556
475.209	5363.98266
475.419	5743.20464
475.628	5818.12305
475.838	5512.01371
476.048	5984.49893
476.258	5980.34137
476.467	6271.14315
476.677	6343.77176
476.886	6549.05241
477.096	6619.50041
477.306	6631.92964
477.515	6524.18203
477.725	6526.25469
477.935	6683.70917
478.144	6845.16923
478.354	6625.71513
478.563	6923.77903
478.773	7064.36777
478.982	7066.43447
479.192	7171.80688
479.401	7322.53369
479.611	7549.43629
479.82	7450.45649
480.03	7675.15191
480.239	7763.72376
480.449	7675.15191
480.658	7827.55384
480.868	8216.28467
481.077	8201.90007
481.287	7940.75166
481.496	8179.29374
481.705	8394.98432
481.915	8643.27838
482.124	8460.67596
482.333	8751.94886
482.543	8758.09847
482.752	8874.91007
482.961	8960.94444
483.171	9008.04526
483.38	9118.5935
483.589	9077.65561
483.799	9349.76496
484.008	9298.63927
484.217	9380.43542
484.426	9650.17919
484.636	9535.77631
484.845	9870.67697
485.054	10023.69838
485.263	9921.69322
485.472	10111.39421
485.682	10266.32844
485.891	10274.48069
486.1	10252.06149
486.309	10268.36652
486.518	10349.87881
486.727	10608.54204
486.936	10785.62042
487.146	10751.02606
487.355	10895.48592
487.564	10738.81546
487.773	11153.74358
487.982	11019.55315
488.191	11224.8863
488.4	11298.04841
488.609	11515.426
488.818	11434.17644
489.027	11448.39622
489.236	11718.48463
489.445	12033.0536
489.654	11840.27709
489.863	12100.00123
490.072	12229.81556
490.281	12404.2071
490.49	12310.93433
490.698	12306.87867
490.907	12237.92795
491.116	12345.4064
491.325	12367.71079
491.534	12517.73739
491.743	12560.30602
491.952	12799.4513
492.16	12923.04614
492.369	13048.64715
492.578	12979.77159
492.787	13170.17857
492.996	12870.36883
493.204	13324.09493
493.413	13328.14502
493.622	13773.56363
493.831	13435.46665
494.039	13518.48156
494.248	13615.66196
494.457	13627.80895
494.665	13826.19333
494.874	13755.34519
495.083	13868.70051
495.291	14099.43353
495.5	13805.95138
495.709	14301.80677
495.917	13905.13426
496.126	14196.57519
496.335	14334.18473
496.543	14338.23194
496.752	14194.55145
496.96	14498.09185
497.169	14676.15388
497.377	14838.02191
497.586	14789.46202
497.794	14987.74619
498.003	14572.95993
498.211	15003.93246
498.42	14801.60203
498.628	15040.3515
498.837	15380.26185
499.045	15442.98409
499.254	14975.60648
499.462	15285.16751
499.671	15610.92052
499.879	15511.7768
500.087	15754.58122
500.296	15920.50571
500.504	15582.59357
500.713	15886.10608
500.921	15803.14369
501.129	15699.94914
501.338	15813.26096
501.546	16319.16763
501.754	15989.3061
501.962	15952.88217
502.171	16226.0734
502.379	16861.62921
502.587	16450.72061
502.795	16689.56232
503.004	16448.69665
503.212	16782.67868
503.42	16612.64384
503.628	16507.39219
503.837	16719.9258
504.045	16776.60572
504.253	16721.95005
504.461	16764.45987
504.669	17055.98566
504.877	17110.65289
505.085	16829.23879
505.294	17114.7024
505.502	16829.23879
505.71	17108.62814
505.918	16989.17287
506.126	17655.4183
506.334	17262.51714
506.542	17548.06752
506.75	17284.79194
506.958	17392.12107
507.166	17570.34712
507.374	17728.34107
507.582	17689.85351
507.79	17951.18792
507.998	17722.26401
508.206	18202.44822
508.414	17997.78849
508.622	17864.0701
508.83	17839.75929
509.037	18101.12691
509.245	17570.34712
509.453	18322.01921
509.661	18044.39094
509.869	18480.11619
510.077	18427.41463
510.285	18688.92105
510.492	18212.58086
510.7	18380.79617
510.908	18441.60326
511.116	18624.04522
511.324	18800.4358
511.531	18664.59215
511.739	18433.49545
511.947	18571.33655
512.155	18697.03082
512.362	18695.00337
512.57	18828.82329
512.778	19015.38913
512.985	18984.96847
513.193	18747.71825
513.401	19226.33092
513.608	18950.49281
513.816	19100.57186
514.024	18741.63563
514.231	19007.27687
514.439	19408.91252
514.646	19191.84703
514.854	19402.82593
515.061	19106.65661
515.269	19250.67321
515.477	19425.14361
515.684	19429.20143
515.892	19481.95454
516.099	19717.34891
516.307	19583.41074
516.514	19877.69283
516.722	20101.0002
516.929	19969.0397
517.136	19855.36489
517.344	19747.79194
517.551	19713.28991
517.759	20241.1008
517.966	19993.4003
518.173	19851.30532
518.381	20332.48154
518.588	20237.03963
518.796	20373.09793
519.003	20614.80011
519.21	20590.42409
519.418	20694.02629
519.625	20450.2737
519.832	21080.0901
520.039	20586.36148
520.247	20557.92368
520.454	20665.58539
520.661	21334.16001
520.868	21025.21934
521.076	21378.88284
521.283	20893.13535
521.49	21094.31633
521.697	21124.8018
521.904	21295.53731
522.112	20962.22327
522.319	21256.91607
522.526	21017.0906
522.733	21563.89327
522.94	21437.83863
523.147	21405.31088
523.354	21437.83863
523.561	21535.42799
523.768	21258.94873
523.975	22037.74908
524.183	21458.16899
524.39	22074.36463
524.597	21925.87585
524.804	22159.80564
525.011	22104.87851
525.218	22245.25323
525.425	21974.69184
525.632	21958.4196
525.838	21984.86212
526.045	22076.39886
526.252	22377.50636
526.459	22603.38942
526.666	22524.02008
526.873	22971.81409
527.08	22656.30531
527.287	22739.75441
527.494	22562.68652
527.701	22841.5295
527.907	22540.30053
528.114	23030.85383
528.321	22904.63436
528.528	23285.36724
528.735	23020.67437
528.941	23377.00442
529.148	22806.92501
529.355	23148.94171
529.562	23177.44733
529.768	23546.04078
529.975	23140.79736
530.182	23676.39652
530.388	23193.73655
530.595	23305.7305
530.802	23291.47618
531.008	23753.80106
531.215	23831.20988
531.422	23554.18765
531.628	23605.10668
531.835	23680.47033
532.042	24045.12433
532.248	24305.93784
532.455	24059.38641
532.661	24130.69882
532.868	24405.79216
533.074	24613.67207
533.281	24303.90006
533.487	24923.50164
533.694	24864.38515
533.9	25043.77912
534.107	24660.55057
534.313	24609.59574
534.52	24511.76684
534.726	25047.85646
534.933	24662.5888
535.139	24782.84843
535.345	24744.11983
535.552	24444.51287
535.758	24758.38816
535.965	25023.39255
536.171	24758.38816
536.377	25555.55352
536.584	24811.38585
536.79	25412.8142
536.996	25231.34609
537.203	25133.48272
537.409	24911.27048
537.615	25113.09516
537.821	25455.63495
538.028	25881.85113
538.234	25486.22175
538.44	25745.20802
538.646	25174.25851
538.853	25783.9567
539.059	25510.69152
539.265	25981.78942
539.471	25863.4956
539.677	25743.16864
539.883	26093.9702
540.09	25847.17969
540.296	26195.95732
540.502	26465.22355
540.708	26322.42727
540.914	26867.1341
541.12	26587.62659
541.326	26673.31204
541.532	26589.66669
541.738	26475.42359
541.944	26714.11557
542.15	26779.40247
542.356	26734.51756
542.562	27036.48405
542.768	26716.15576
542.974	27034.44363
543.18	27077.2927
543.386	27095.65678
543.592	27171.15468
543.798	27865.00118
544.004	27548.67106
544.21	27687.44461
544.415	27293.58759
544.621	27289.50641
544.827	27258.89778
545.033	27669.0772
545.239	27724.17972
545.445	28132.37292
545.651	27726.22057
545.856	27913.98386
546.062	27465.00151
546.268	27750.71087
546.474	27442.55394
546.679	27220.12727
546.885	27493.57136
547.091	27518.06
547.297	27852.75561
547.502	27697.64877
547.708	28040.52548
547.914	27730.30227
548.119	28181.35915
548.325	28336.48635
548.531	27960.92621
548.736	27889.49243
548.942	27785.40575
549.147	27809.89646
549.353	28424.25845
549.559	28420.17599
549.764	28405.88738
549.97	28469.16588
550.175	28810.07072
550.381	28887.64596
550.586	28497.7436
550.792	28724.33142
550.997	28824.36078
551.203	28546.73446
551.408	28828.44367
551.614	28887.64596
551.819	29093.84005
552.025	28985.63787
552.23	28842.7338
552.435	29253.0863
552.641	29922.80762
552.846	29330.67011
553.052	29336.79521
553.257	29759.45025
553.462	29489.92582
553.668	29251.04465
553.873	29451.13217
554.078	29906.47156
554.283	29971.81622
554.489	29683.89984
554.694	29816.62452
554.899	29336.79521
555.105	29583.84888
555.31	29839.08608
555.515	29522.59446
555.72	29700.23494
555.925	29984.06847
556.131	30476.23533
556.336	29945.26981
556.541	30419.05053
556.746	30208.7004
556.951	30390.45849
557.156	29622.64384
557.361	30233.20656
557.567	30568.14154
557.772	30568.14154
557.977	30284.2616
558.182	30962.34729
558.387	30833.66317
558.592	30300.59937
558.797	30363.90896
559.002	30490.53168
559.207	30527.29402
559.412	30970.5179
559.617	31046.09712
559.822	30972.56055
560.027	30741.74929
560.232	30668.22015
560.437	30958.26199
560.642	30956.21935
560.847	31042.01171
561.051	31086.95158
561.256	30870.4295
561.461	30995.02986
561.666	30988.90185
561.871	31321.8764
562.076	30901.06845
562.281	31187.04752
562.485	31078.78064
562.69	31225.8612
562.895	31117.59281
563.1	31616.07279
563.305	31138.02049
563.509	31374.99268
563.714	31080.82337
563.919	31350.47734
564.123	31217.68985
564.328	31099.20803
564.533	31393.37934
564.737	31240.16112
564.942	31481.22852
565.147	32261.80098
565.351	31767.27079
565.556	31187.04752
565.761	31761.14095
565.965	31546.60664
566.17	31117.59281
566.374	31779.53051
566.579	32380.34246
566.784	32034.95675
566.988	32153.48483
567.193	32065.60992
567.397	31634.46122
567.602	32384.43022
567.806	31849.00354
568.011	32276.10733
568.215	32012.47804
568.42	31567.03765
568.624	31906.21823
568.828	32188.22711
569.033	31795.87692
569.237	32576.5654
569.442	32521.37558
569.646	31998.17353
569.85	32321.07081
570.055	32607.22714
570.259	32192.31448
570.463	32858.67392
570.668	32764.63256
570.872	32406.9131
571.076	33034.50494
571.281	32834.14088
571.485	32862.76279
571.689	32601.09475
571.893	32537.72794
572.098	33005.87996
572.302	32791.20893
572.506	33157.18944
572.71	32576.5654
572.914	33099.93545
573.119	32952.72066
573.323	32958.85433
573.527	32736.01232
573.731	33680.76065
573.935	33560.07611
574.139	33431.22161
574.343	32768.7212
574.547	32932.27525
574.751	33445.53818
574.955	33772.81575
575.159	33351.46057
575.364	33151.05498
575.568	32952.72066
575.772	33373.95682
575.976	33063.13045
576.18	33169.45844
576.383	33709.3993
576.587	33414.86
576.791	33198.08649
576.995	33920.118
577.199	33574.39404
577.403	33643.94045
577.607	34198.40528
577.811	33995.82195
578.015	33302.3791
578.219	33785.09026
578.422	33762.58707
578.626	34425.58788
578.83	34218.87025
579.034	34206.59122
579.238	34454.24496
579.442	34288.45397
579.645	34124.73447
579.849	34441.96326
580.053	34417.40029
580.257	33891.47451
580.46	34208.63772
580.664	34826.86052
580.868	34706.05225
581.071	34628.25142
581.275	34376.46327
581.479	34509.5144
581.682	34247.52184
581.886	34728.57468
582.09	34833.00372
582.293	34568.88118
582.497	34597.54224
582.7	34742.90741
582.904	34826.86052
583.107	34435.82246
583.311	34388.74421
583.515	34763.38311
583.718	35035.75188
583.922	35588.93851
584.125	34945.63612
584.329	35324.59327
584.532	35156.60303
584.735	35271.32452
584.939	34810.47885
585.142	35435.2391
585.346	34560.69245
585.549	35437.28823
585.753	35273.37326
585.956	35886.17549
586.159	35564.34464
586.363	35921.03155
586.566	35982.54622
586.769	35892.32644
586.973	35795.96732
587.176	35683.22206
587.379	35748.8173
587.582	35896.4271
587.786	35605.33485
587.989	35957.93974
588.192	35966.14181
588.395	36027.66026
588.599	36074.82792
588.802	36054.31986
589.005	35506.96187
589.208	36312.76468
589.411	36083.03131
589.615	36343.53829
589.818	36007.15353
590.021	36413.29698
590.224	36091.23479
590.427	35964.09128
590.63	36083.03131
590.833	35892.32644
591.036	35779.56698
591.239	36444.07516
591.442	36003.05226
591.645	36230.7084
591.848	36567.20212
592.051	36634.93179
592.254	36208.14463
592.457	36526.15725
592.66	36856.64267
592.863	37115.40583
593.066	37047.62381
593.269	37199.63068
593.472	37125.67651
593.675	37756.65038
593.878	36885.38871
594.081	37275.6489
594.284	36994.22519
594.486	37403.05332
594.689	37830.68833
594.892	37146.2184
595.095	37919.13617
595.298	37731.97336
595.5	37884.16663
595.703	38139.29307
595.906	37649.7248
596.109	37382.50229
596.311	37220.17516
596.514	37308.52474
596.717	37559.26579
596.92	37768.98932
597.122	37583.93495
597.325	37688.7913
597.528	37612.71703
597.73	38299.84178
597.933	37709.35375
598.136	37935.59324
598.338	37612.71703
598.541	37859.48366
598.743	37785.44169
598.946	37734.02973
599.148	37859.48366
599.351	37727.86063
599.554	37752.53747
599.756	37522.26413
599.959	38110.48208
600.161	38250.43665
600.363	38516.04802
600.566	38308.07645
600.768	38417.19891
600.971	38194.86177
601.173	38388.37173
601.376	38293.66587
601.578	37888.28058
601.78	37861.54053
601.983	38024.05895
602.185	38110.48208
602.388	37956.16531
602.59	37958.22256
602.792	38318.36998
602.995	38538.70381
603.197	38044.63456
603.399	38373.95879
603.601	38054.92267
603.804	38229.85264
604.006	38266.90448
604.208	38392.4898
604.41	38314.25254
604.613	38392.4898
604.815	38318.36998
605.017	38903.40669
605.219	38765.32159
605.421	38526.34597
605.623	38295.7245
605.826	38557.24117
606.028	38499.57175
606.23	38643.75844
606.432	38697.32474
606.634	38886.91672
606.836	38831.26749
607.038	38992.05055
607.24	38792.11097
607.442	39002.35911
607.644	38926.08137
607.846	38748.83659
608.048	39006.48259
608.25	38919.89725
608.452	38851.87753
608.654	39165.26596
608.856	38812.71925
609.058	39239.52195
609.26	39350.92968
609.462	38549.00226
609.664	39435.53628
609.866	38963.18784
610.067	38734.41269
610.269	39014.72969
610.471	38656.11935
610.673	39128.14268
610.875	39105.45776
611.077	38868.36622
611.278	39002.35911
611.48	38963.18784
611.682	39006.48259
611.884	39200.32972
612.085	38715.86835
612.287	38806.53667
612.489	38924.01999
612.69	38411.02151
612.892	38769.44293
613.094	39078.64982
613.295	38569.59981
613.497	39342.67627
613.699	38783.86792
613.9	39049.78153
614.102	39130.205
614.304	39078.64982
614.505	39091.02251
614.707	39392.1991
614.908	38569.59981
615.11	39260.15085
615.311	39086.89824
615.513	39270.46567
615.714	39080.71191
615.916	39086.89824
616.117	38926.08137
616.319	38829.20654
616.52	38816.84102
616.722	39138.45439
616.923	38577.83909
617.124	38135.17711
617.326	38124.88737
617.527	39344.73961
617.729	39470.62198
617.93	38767.38226
618.131	38792.11097
618.333	39383.9449
618.534	39268.40268
618.735	39183.82878
618.937	39062.15342
619.138	38992.05055
619.339	38940.5113
619.54	38992.05055
619.742	39152.89119
619.943	39025.03877
620.144	39433.4725
620.345	39068.3395
620.546	39381.88137
620.748	39058.02942
620.949	39194.14179
621.15	39365.37353
621.351	39509.83884
621.552	39474.7499
621.753	38818.90191
621.954	39047.71958
622.155	39136.39203
622.356	39483.00586
622.558	39468.55803
622.759	39559.38114
622.96	39037.40997
623.161	39464.43017
623.362	39039.47188
623.563	39309.66421
623.764	39037.40997
623.965	39235.39628
624.166	39297.28534
624.366	38965.2494
624.567	39497.45418
624.768	39175.57854
624.969	39301.41159
625.17	39435.53628
625.371	39664.67794
625.572	39336.48632
625.773	39386.00844
625.973	39575.89653
626.174	39712.17344
626.375	39241.58479
626.576	39573.83207
626.777	39202.39238
626.977	39171.45348
627.178	39470.62198
627.379	38767.38226
627.58	39241.58479
627.78	39148.76634
627.981	39169.39096
628.182	39163.20347
628.382	39557.31676
628.583	39594.47713
628.784	39334.42302
628.984	39058.02942
629.185	39604.80003
629.386	39489.19794
629.586	40139.8819
629.787	39986.92924
629.987	39776.19776
630.188	39563.50992
630.388	39648.15904
630.589	39739.02114
630.79	40156.42085
630.99	39821.64042
631.191	40077.867
631.391	39906.34252
631.591	40011.7284
631.792	39528.41652
631.992	39284.90682
632.193	39466.4941
632.393	39220.95677
632.594	39964.19803
632.794	39400.45346
632.994	39501.58236
633.195	39458.23846
633.395	39396.32626
633.595	40069.59907
633.796	39875.35191
633.996	39677.06755
634.196	39784.45969
634.397	40127.47815
634.597	39615.1232
634.797	40208.10952
634.997	39943.5344
635.198	39664.67794
635.398	39266.33971
635.598	39619.25254
635.798	39705.97807
635.998	40026.19528
636.199	40301.16627
636.399	40460.44832
636.599	40311.50727
636.799	40131.61269
636.999	39491.26198
637.199	39650.22386
637.399	39718.36891
637.599	40263.94092
637.799	39757.60903
637.999	40086.13509
638.199	40191.56841
638.399	40059.26441
638.599	39991.06233
638.799	40344.60034
638.999	40770.92852
639.199	40516.31606
639.399	40024.12855
639.599	39970.39732
639.799	39503.64647
639.999	39821.64042
640.199	40102.6718
640.399	39821.64042
640.599	38612.8576
640.799	40818.55809
640.998	40433.55194
641.198	40431.48307
641.398	39803.04964
641.598	40396.3139
641.798	40574.26158
641.997	39993.12889
642.197	40009.66175
642.397	40477.00088
642.597	40702.60101
642.796	40404.58871
642.996	39846.42946
643.196	40363.21642
643.395	39683.26249
643.595	40057.19751
643.795	39695.65265
643.994	40237.05814
644.194	40251.53325
644.394	40468.72451
644.593	39893.94599
644.793	40928.33641
644.992	40373.55908
645.192	40466.65545
645.392	40518.38539
645.591	40563.91352
645.791	40206.04184
645.99	40787.49464
646.19	40425.27651
646.389	40878.62145
646.589	40686.03863
646.788	40474.93177
646.987	40272.21291
647.187	40913.83552
647.386	40692.24944
647.586	41004.99342
647.785	40849.62414
647.984	41177.01209
648.184	41100.31905
648.383	40905.54956
648.582	40787.49464
648.782	40797.84883
648.981	40497.69257
649.18	40599.09808
649.38	41158.35553
649.579	41560.72255
649.778	41253.72135
649.977	41378.14948
650.177	41044.36404
650.376	40642.56586
650.575	40491.48495
650.774	40294.9618
650.973	40234.99031
651.173	40508.03884
651.372	40735.72794
651.571	40706.74171
651.77	41092.02888
651.969	40663.26656
652.168	40955.26814
652.367	41048.50856
652.566	40963.55522
652.765	41235.06084
652.964	41340.81651
653.163	40996.70541
653.362	40789.56545
653.561	40944.90955
653.76	40841.3396
653.959	40915.90704
654.158	40874.47884
654.357	40690.17916
654.556	40642.56586
654.755	41374.00118
654.954	40924.19324
655.153	40922.12168
655.352	41017.42579
655.551	40646.70591
655.749	41121.0453
655.948	40731.58692
656.147	41652.04444
656.346	41259.94173
656.545	40853.76647
656.743	40652.91607
656.942	41071.30427
657.141	40814.41615
657.34	40582.54024
657.538	40563.91352
657.737	40398.38258
657.936	41351.18639
658.135	41094.1014
658.333	41239.20753
658.532	40866.19375
658.731	40942.83787
658.929	40350.8056
659.128	40454.2413
659.326	40994.63343
659.525	41303.48742
659.724	41154.20976
659.922	41475.64842
660.121	40839.2685
660.319	41166.64722
660.518	41065.08712
660.716	41214.32807
660.915	41593.92777
661.113	41438.30525
661.312	41243.35428
661.51	41089.95636
661.709	41548.2714
661.907	41461.12561
662.105	41085.81137
662.304	41197.74271
662.502	40980.12994
662.701	40810.27425
662.899	40911.76402
663.097	40766.7871
663.296	40712.95286
663.494	40748.1513
663.692	40673.61733
663.891	41492.24665
664.089	41096.17394
664.287	40955.26814
664.485	40772.99924
664.684	41085.81137
664.882	41052.65313
665.08	41092.02888
665.278	41239.20753
665.476	41328.37305
665.675	40851.6953
665.873	41009.1375
666.071	41079.59397
666.269	40872.40755
666.467	40698.46035
666.665	41108.60941
666.863	40214.31262
667.061	40491.48495
667.259	40330.12178
667.457	41025.71427
667.655	39794.78733
667.853	40541.14878
668.051	40986.34565
668.249	40737.79847
668.447	40789.56545
668.645	40524.59345
668.843	40634.2859
669.041	40272.21291
669.239	39675.00259
669.437	39648.15904
669.635	40131.61269
669.833	40022.06184
670.031	39619.25254
670.229	40117.14198
670.426	39794.78733
670.624	39960.06521
670.822	40727.44594
671.02	40690.17916
671.218	39984.86272
671.415	40144.01658
671.613	39991.06233
671.811	40011.7284
672.009	40141.94923
672.206	39982.7962
672.404	40065.46518
672.602	40272.21291
672.799	40715.02327
672.997	40872.40755
673.195	40580.47056
673.392	41063.01476
673.59	40553.56574
673.788	40301.16627
673.985	39823.70612
674.183	40590.81907
674.38	40251.53325
674.578	40075.8
674.775	39974.53024
674.973	40532.87102
675.17	40381.8334
675.368	40003.46184
675.565	40468.72451
675.763	40632.21594
675.96	39840.23206
676.158	39858.82454
676.355	39588.2835
676.553	40700.53067
676.75	40113.00759
676.947	39887.74787
677.145	39326.16993
677.342	39902.2103
677.539	39935.26924
677.737	39939.4018
677.934	39367.43697
678.131	40239.12598
678.329	40135.74728
678.526	39596.54169
678.723	39871.22
678.92	40385.97063
679.118	39478.87786
679.315	39800.98404
679.512	39629.57606
679.709	39945.60071
679.906	39115.76894
680.104	39062.15342
680.301	39392.1991
680.498	38942.57276
680.695	39270.46567
680.892	39712.17344
681.089	39772.06686
681.286	39406.64434
681.483	38934.32699
681.68	39076.58773
681.877	38839.51139
682.075	39190.01656
682.272	38814.78013
682.469	39328.23318
682.665	38213.38604
682.862	38275.1386
683.059	38765.32159
683.256	38687.02305
683.453	38934.32699
683.65	39058.02942
683.847	39181.7662
684.044	39171.45348
684.241	38584.01863
684.438	38924.01999
684.635	38437.7908
684.831	38654.05918
685.028	39045.65764
685.225	38952.88018
685.422	38312.19384
685.619	38590.19826
685.815	38464.56157
686.012	38713.80791
686.209	38312.19384
686.405	38608.73764
686.602	38120.77153
686.799	38466.62092
686.996	38845.69442
687.192	38662.29993
687.389	38464.56157
687.586	38408.9624
687.782	37974.68087
687.979	38271.02152
688.175	37865.65429
688.372	38211.32775
688.568	38240.14454
688.765	38102.25067
688.962	37869.76809
689.158	37682.62272
689.355	38303.9591
689.551	37610.66112
689.748	37678.51037
689.944	37425.66031
690.14	38085.78826
690.337	37787.49827
690.533	38509.86935
690.73	37602.43754
690.926	38188.68716
691.123	37756.65038
691.319	38046.69217
691.515	37625.05268
691.712	37191.41309
691.908	37199.63068
692.104	37308.52474
692.301	37312.63435
692.497	37820.40466
692.693	37579.82334
692.889	37618.88482
693.086	38271.02152
693.282	37787.49827
693.478	37680.56654
693.674	37398.94305
693.87	37583.93495
694.067	37750.48102
694.263	37657.94909
694.459	37532.54212
694.655	37039.40833
694.851	37074.3249
695.047	37074.3249
695.243	37631.2206
695.439	36946.99189
695.635	37183.19562
695.831	37366.062
696.027	36435.86751
696.224	36651.35217
696.42	36825.84483
696.615	37374.28208
696.811	36842.27016
697.007	36671.87823
697.203	36528.20943
697.399	36850.48298
697.595	36918.24297
697.791	36721.14347
697.987	36238.9136
698.183	36437.91941
698.379	36345.58992
698.575	36749.88329
698.77	36378.41674
698.966	36889.4954
699.162	36856.64267
699.358	37419.49468
699.554	36766.30663
699.749	36702.66856
699.945	36493.3232
700.141	36306.61012
700.337	36388.67545
700.532	36758.0949
700.728	36897.70885
700.924	36877.17542
701.119	36398.93431
701.315	35509.01119
701.511	35468.02587
701.706	36015.35615
701.902	35867.72294
702.097	36423.55622
702.293	36288.14677
702.489	36314.81621
702.684	35839.01988
702.88	35722.16857
703.075	35662.72468
703.271	35832.86936
703.466	36101.48927
703.662	35703.71998
703.857	35884.12519
704.053	36078.9296
704.248	36394.83075
704.443	36647.24703
704.639	36446.12709
704.834	36134.30459
705.03	35810.3179
705.225	35453.6815
705.42	35615.58272
705.616	35168.89389
705.811	35256.98351
706.006	35859.52196
706.202	35713.96914
706.397	35549.99857
706.592	35873.87374
706.787	35705.7698
706.983	35621.73152
707.178	36245.06755
707.373	36011.25483
707.568	35964.09128
707.763	35336.88653
707.959	35465.97666
708.154	35599.18618
708.349	35162.74844
708.544	35736.51777
708.739	35308.20253
708.934	34358.04213
709.129	35045.99287
709.324	34863.72031
709.519	35115.6347
709.714	34988.64481
709.909	35037.80007
710.104	34413.30652
710.299	34333.48109
710.494	34873.95939
710.689	34980.45252
710.884	35144.31233
711.079	35234.4481
711.274	35978.44508
711.469	35871.82347
711.664	35119.73145
711.859	34716.28965
712.054	34744.95496
712.249	34953.8281
712.443	34757.24035
712.638	34871.91157
712.833	34591.40052
713.028	35347.13105
713.223	34595.49499
713.417	35099.2479
713.612	34814.57424
713.807	35437.28823
714.002	34914.91685
714.196	35586.889
714.391	35097.19957
714.586	35261.08092
714.78	35121.77983
714.975	35207.81611
715.17	35240.59406
715.364	35494.66609
715.559	34685.57775
715.754	34499.2791
715.948	34499.2791
716.143	34792.04981
716.337	34446.05714
716.532	35213.96188
716.726	34853.48134
716.921	34943.58814
717.115	34665.10368
717.31	34618.01492
717.504	34927.20444
717.699	34577.06997
717.893	34214.77723
718.088	34652.81944
718.282	34935.39625
718.476	34139.05898
718.671	33991.72972
718.865	33997.86807
719.059	33744.17567
719.254	33578.4849
719.448	33230.80494
719.642	33656.21374
719.837	33050.86231
720.031	33412.81481
720.225	33339.19005
720.419	33799.41069
720.614	33046.77295
720.808	33564.16693
721.002	33048.81763
721.196	33549.84911
721.39	33390.31795
721.585	33347.37039
721.779	33733.94722
721.973	33733.94722
722.167	33228.76002
722.361	33175.59298
722.555	33418.95038
722.749	32922.05264
722.943	32817.78572
723.137	32566.34493
723.331	32188.22711
723.525	31910.30505
723.719	32370.12308
723.913	32644.02194
724.107	32353.77218
724.301	32834.14088
724.495	32505.02336
724.689	33014.05847
724.883	32474.36335
725.077	33087.66702
725.271	32558.1686
725.465	32433.48412
725.659	32688.9944
725.853	32789.16458
726.046	32883.20732
726.24	32182.09608
726.434	32237.27606
726.628	32274.06356
726.822	32065.60992
727.015	32776.89852
727.209	31965.47786
727.403	32797.342
727.596	32870.94057
727.79	33014.05847
727.984	32938.40885
728.177	33363.73121
728.371	32872.98503
728.565	32883.20732
728.758	32274.06356
728.952	32572.47721
729.146	32703.30407
729.339	32529.55174
729.533	32347.64063
729.726	32288.36999
729.92	32122.83036
730.113	32670.59644
730.307	32913.8746
730.5	32678.77329
730.694	32803.47509
730.887	32852.54062
731.081	32795.29764
731.274	32854.58505
731.468	32605.18301
731.661	32423.26445
731.854	32574.5213
732.048	32502.97934
732.241	32026.78264
732.435	31900.08801
732.628	32057.43569
732.821	31928.69583
733.014	32261.80098
733.208	32302.67653
733.401	32639.93359
733.594	33028.37097
733.788	32758.49961
733.981	32707.39257
734.174	32543.86012
734.367	32678.77329
734.56	32374.21082
734.754	32061.5228
734.947	32625.62445
735.14	32496.84731
735.333	32819.8301
735.526	32425.30838
735.719	31940.95644
735.912	31738.66501
736.105	31834.70009
736.298	31812.22344
736.491	31554.77902
736.684	31571.12387
736.877	32288.36999
737.07	31779.53051
737.263	32057.43569
737.456	32118.74314
737.649	31920.52213
737.842	31536.39119
738.035	31528.21887
738.228	31569.08076
738.421	32084.00203
738.614	32065.60992
738.807	32231.14487
739	31250.37539
739.192	31409.72314
739.385	32006.34752
739.578	31689.62736
739.771	31550.69282
739.964	31268.76118
740.156	32143.26662
740.349	31556.82212
740.542	31767.27079
740.735	31238.11827
740.927	32106.4815
741.12	31755.01113
741.313	31983.86911
741.505	31920.52213
741.698	31223.81836
741.891	31097.16529
742.083	31889.87102
742.276	31757.0544
742.468	31534.34811
742.661	30819.36527
742.854	30562.01438
743.046	30766.25939
743.239	30747.8768
743.431	31458.75518
743.624	31268.76118
743.816	31154.36273
744.009	31571.12387
744.201	30970.5179
744.393	30684.55981
744.586	30596.73511
744.778	30909.23888
744.971	30678.43242
745.163	31103.29353
745.355	30474.193
745.548	30551.80247
745.74	30594.6927
745.932	30588.56549
746.125	30948.04878
746.317	31150.27716
746.509	30986.85919
746.702	30929.66508
746.894	30537.50585
747.086	30625.32893
747.278	30506.87045
747.471	30778.51451
747.663	30843.87599
747.855	30429.26203
748.047	30770.34443
748.239	30831.62061
748.431	30933.75034
748.623	30529.33638
748.815	30233.20656
749.008	30182.15226
749.2	30333.27514
749.392	30251.58628
749.584	29769.65988
749.776	30674.34751
749.968	30363.90896
750.16	30343.48638
750.352	30302.64159
750.544	30131.0987
750.736	29687.98361
750.928	30006.53104
751.12	29785.99534
751.311	29636.93682
751.503	30049.4145
751.695	30316.93721
751.887	29830.91823
752.079	30139.26722
752.271	29195.92025
752.463	29763.5341
752.654	29440.92338
752.846	29855.42184
753.038	29124.46384
753.23	29281.66964
753.421	29310.25317
753.613	29387.83809
753.805	29708.40251
753.997	29161.21269
754.188	29069.34119
754.38	28997.88703
754.572	28959.09816
754.763	28852.94106
754.955	28469.16588
755.146	29036.67627
755.338	29120.38065
755.53	29212.25333
755.721	29155.08786
755.913	29046.88403
756.104	29122.42225
756.296	29367.42086
756.487	28789.65644
756.679	28912.14371
756.87	28334.44516
757.062	28742.70397
757.253	28638.59397
757.445	28358.93949
757.636	28536.52798
757.827	28569.18881
758.019	28438.54712
758.21	28150.74268
758.401	28130.33185
758.593	28430.38216
758.784	28081.34629
758.975	28271.16886
759.167	28111.96219
759.358	28612.05656
759.549	28146.66051
759.74	27640.50587
759.932	27711.93464
760.123	28040.52548
760.314	27958.88522
760.505	28005.82815
760.696	27528.26366
760.888	27928.27059
761.079	27605.81243
761.27	27677.24048
761.461	27748.67001
761.652	27897.65622
761.843	27318.07474
762.034	27383.37471
762.225	27640.50587
762.416	27693.5671
762.607	27660.91394
762.798	27677.24048
762.989	27736.42484
763.18	27846.63285
763.371	27238.49219
763.562	27007.91832
763.753	27087.49495
763.944	27440.51325
764.135	27105.85909
764.326	27483.36781
764.517	27322.15595
764.708	27622.13871
764.899	27052.80744
765.089	27036.48405
765.28	26897.73879
765.471	26975.2721
765.662	26854.89232
765.853	26916.10176
766.043	26506.02394
766.234	26640.66964
766.425	26616.18811
766.615	26834.48946
766.806	26789.60368
766.997	26550.90509
767.187	26255.11182
767.378	26640.66964
767.569	25812.5088
767.759	26357.10564
767.95	26177.59932
768.141	26371.3851
768.331	26179.63909
768.522	26091.9305
768.712	26518.26418
768.903	26371.3851
769.093	26108.24813
769.284	25743.16864
769.474	25378.15046
769.665	25327.17547
769.855	25855.33763
770.046	25588.18104
770.236	25294.55217
770.426	25290.4743
770.617	25435.244
770.807	25739.08987
770.998	25622.84833
771.188	25410.77514
771.378	25545.35752
771.569	25437.28309
771.759	25021.3539
771.949	25000.96758
772.139	25215.03518
772.33	24956.11847
772.52	25551.47511
772.71	25082.51423
772.9	25106.97893
773.09	25180.37496
773.281	25492.33916
773.471	25268.04614
773.661	25047.85646
773.851	24994.85172
774.041	25058.04986
774.231	25047.85646
774.421	24996.89034
774.611	24894.9624
774.802	24860.30823
774.992	24477.12051
775.182	24762.46485
775.372	25041.74045
775.562	24799.15547
775.752	24756.34982
775.942	24004.3763
776.131	23902.51119
776.321	24051.23663
776.511	24444.51287
776.701	24523.99514
776.891	24293.71122
777.081	24360.95883
777.271	24501.57667
777.461	24519.91903
777.651	24036.97464
777.84	24175.5255
778.03	23352.56721
778.22	23515.49046
778.41	23711.02434
778.599	23953.44286
778.789	24047.16176
778.979	24617.74841
779.169	23965.66672
779.358	24261.10736
779.548	24367.07239
779.738	24043.0869
779.927	23898.43673
780.117	23816.95004
780.307	23770.0973
780.496	23666.21203
780.686	23951.40556
780.875	23611.2171
781.065	23660.10137
781.254	23423.84367
781.444	23077.68045
781.633	23381.07733
781.823	23399.40559
782.012	23509.38048
782.202	23847.50701
782.391	23721.20915
782.581	23222.24317
782.77	22778.42793
782.96	22884.2776
783.149	22495.52984
783.338	22914.81287
783.528	22456.86564
783.717	22629.84707
783.906	22867.99243
784.096	22585.07294
784.285	22644.09374
784.474	22904.63436
784.663	22538.26546
784.853	22833.38718
785.042	22570.82699
785.231	22637.988
785.42	22646.12899
785.61	22316.46453
785.799	22342.91559
785.988	22595.24873
786.177	21925.87585
786.366	22237.11508
786.555	22088.60434
786.744	22385.64552
786.933	22414.13304
787.122	22674.6229
787.312	22233.04603
787.501	22051.98831
787.69	21771.30643
787.879	21820.11542
788.068	21659.46094
788.257	21582.19279
788.445	21458.16899
788.634	21559.82675
788.823	21500.86404
789.012	21169.51548
789.201	21263.01406
789.39	21307.7338
789.579	21450.0368
789.768	21565.92653
789.957	21553.72701
790.145	21543.56084
790.334	21771.30643
790.523	21393.11324
790.712	21576.09291
790.9	21547.6273
791.089	21354.48833
791.278	21478.49975
791.467	21206.10086
791.655	21273.17746
791.844	20887.03958
792.033	20848.43393
792.221	20805.76627
792.41	21010.99408
792.599	20484.80166
792.787	20805.76627
792.976	20832.17937
793.164	20996.76902
793.353	20923.61473
793.541	20958.15914
793.73	20492.92606
793.918	20789.5124
794.107	20096.93961
794.295	20643.23955
794.484	20822.0204
794.672	20466.522
794.861	20253.28441
795.049	20649.33382
795.238	20429.9637
795.426	20454.33575
795.614	20308.11251
795.803	20306.08179
795.991	20131.45515
796.179	20499.0194
796.368	20198.45937
796.556	20507.14392
796.744	20245.16199
796.932	20210.64245
797.121	19877.69283
797.309	20304.05107
797.497	20105.06081
797.685	20188.30692
797.874	19879.72267
798.062	19855.36489
798.25	19457.6066
798.438	20088.81849
798.626	20155.81979
798.814	19893.93165
799.002	19859.42448
799.19	19971.06972
799.378	19875.663
799.566	19656.46566
799.755	19676.75966
799.943	19571.23545
800.131	19979.18987
800.318	19619.93753
800.506	19666.61261
800.694	20031.97249
800.882	19841.15647
801.07	20072.57644
801.258	19751.85108
801.446	19867.5437
801.634	19443.40391
801.822	20013.70126
802.01	19969.0397
802.197	20377.15966
802.385	20145.66778
802.573	19721.40792
802.761	19940.61976
802.949	20121.3034
803.136	19930.46998
803.324	19528.6231
803.512	19697.05407
803.699	19684.87737
803.887	19678.78908
804.075	19707.20144
804.262	20023.8519
804.45	20029.94234
804.638	19879.72267
804.825	20226.88679
805.013	20149.72858
805.201	20316.23545
805.388	19557.03113
805.576	19504.27401
805.763	19455.57763
805.951	19680.81851
806.138	19459.63557
806.326	19837.09696
806.513	19828.97798
806.701	19650.37755
806.888	19333.84715
807.075	19741.70326
807.263	19557.03113
807.45	19652.40691
807.638	19467.7515
807.825	19810.71054
808.012	19561.08948
808.2	19792.44343
808.387	19798.53243
808.574	20096.93961
808.761	19504.27401
808.949	19727.49648
809.136	19354.13453
809.323	19772.14705
809.51	19603.70323
809.698	19419.05692
809.885	19167.50618
810.072	19569.20625
810.259	19630.08409
810.446	19885.81221
810.633	19810.71054
810.82	20096.93961
811.008	19532.68134
811.195	20070.5462
811.382	20119.27306
811.569	20080.69743
811.756	19662.55382
811.943	19977.15983
812.13	19544.85616
812.317	19804.62147
812.504	19916.26047
812.691	20206.5814
812.878	20015.73138
813.064	20080.69743
813.251	19841.15647
813.438	19800.5621
813.625	19289.21637
813.812	19457.6066
813.999	19421.08581
814.186	19248.64466
814.372	19394.71053
814.559	19307.47417
814.746	18922.10196
814.933	18926.15775
815.12	18968.74448
815.306	18849.10054
815.493	19017.41721
815.68	19451.51971
815.866	18883.57279
816.053	19546.88531
816.24	19291.24499
816.426	19297.33091
816.613	19283.13051
816.799	19486.01259
816.986	19303.41685
817.173	18940.35313
817.359	18984.96847
817.546	19155.33597
817.732	18761.91117
817.919	19419.05692
818.105	19463.69353
818.292	19471.80949
818.478	19307.47417
818.665	19496.15778
818.851	19597.61544
819.037	19169.53456
819.224	19053.92329
819.41	18907.90683
819.597	18745.6907
819.783	19264.87314
819.969	19084.34602
820.156	18964.68852
820.342	18867.35041
820.528	18936.29728
820.714	18739.60809
820.901	19490.07065
821.087	18989.0245
821.273	19268.93031
821.459	18798.40815
821.646	19139.10925
821.832	18903.85112
822.018	18871.40598
822.204	18532.82033
822.39	18526.73895
822.576	18245.00591
822.762	18287.56523
822.948	18346.34033
823.134	18441.60326
823.32	18076.81115
823.507	18498.35964
823.693	18494.30551
823.879	18380.79617
824.065	18630.12716
824.25	18502.41378
824.436	18575.39097
824.622	18465.92705
824.808	18628.09985
824.994	18875.46157
825.18	18636.20914
825.366	18392.95731
825.552	18038.31225
825.738	18478.08916
825.923	18445.65718
826.109	18465.92705
826.295	17766.82984
826.481	18441.60326
826.667	18713.25053
826.852	18619.99062
827.038	18577.41819
827.224	18279.45856
827.409	18403.0917
827.595	18105.17959
827.781	17639.21382
827.966	17560.21998
828.152	17509.58549
828.338	17633.13719
828.523	17222.01842
828.709	17450.85197
828.894	17264.54211
829.08	17232.14299
829.266	17426.54921
829.451	17586.55071
829.637	17191.64514
829.822	17177.47117
830.008	17446.80148
830.193	17647.31603
830.378	17112.67764
830.564	17112.67764
830.749	17288.84195
830.935	17408.32244
831.12	17126.85098
831.305	17230.11807
831.491	17209.86903
831.676	17485.28164
831.861	17222.01842
832.047	17286.81694
832.232	16863.65363
832.417	16987.14829
832.602	17049.91165
832.788	17748.59817
832.973	17491.35756
833.158	17390.09592
833.343	17015.49271
833.528	16999.29584
833.714	17126.85098
833.899	17080.28196
834.084	16780.65436
834.269	17074.20785
834.454	16780.65436
834.639	17126.85098
834.824	16744.21696
835.009	16889.97136
835.194	16578.234
835.379	16912.24054
835.564	16594.42678
835.749	16754.33838
835.934	16444.64875
836.119	16511.44022
836.304	16505.36817
836.489	16371.78784
836.674	16222.02591
836.859	16278.69141
837.044	16430.48115
837.228	16404.17015
837.413	16436.55296
837.598	16509.4162
837.783	15977.16474
837.968	16268.57247
838.152	15752.5578
838.337	15979.1883
838.522	15878.0121
838.707	15869.91814
838.891	15829.44863
839.076	16039.89565
839.261	15679.71522
839.445	15772.79208
839.63	15616.9906
839.815	15900.27059
839.999	16402.14624
840.184	16521.56034
840.368	16250.35849
840.553	16489.17614
840.737	15894.20008
840.922	15946.81156
841.106	15908.36462
841.291	15884.08258
841.475	15341.81937
841.66	15418.70446
841.844	15499.63686
842.029	15440.96079
842.213	15402.51808
842.397	15315.51669
842.582	15123.30573
842.766	15483.45031
842.951	15078.79374
843.135	15386.33172
843.319	15299.33045
843.504	15226.49255
843.688	14963.46675
843.872	15028.21183
844.056	15210.30637
844.241	15331.70295
844.425	14783.39201
844.609	15123.30573
844.793	14939.18725
844.977	15113.18937
845.161	14829.92863
845.346	15133.42209
845.53	15020.11871
845.714	14920.97758
845.898	14827.9053
846.082	14999.8859
846.266	14765.18193
846.45	15022.14199
846.634	14920.97758
846.818	14815.76535
847.002	14858.25509
847.186	14961.44346
847.37	14732.80829
847.554	14997.86261
847.738	14975.60648
847.922	15151.63152
848.106	14878.48821
848.29	14908.83778
848.473	14748.99513
848.657	14510.23274
848.841	14150.02875
849.025	14358.46791
849.209	14052.88469
849.392	14348.34995
849.576	14085.26662
849.76	14065.02799
849.944	14287.64128
850.127	14129.79083
850.311	14052.88469
850.495	14222.88357
850.678	14508.20926
850.862	14380.72729
851.046	14239.07318
851.229	14346.32635
851.413	14032.64569
851.596	14133.83843
851.78	14125.74321
851.964	13977.99916
852.147	13714.85887
852.331	13866.67639
852.514	13846.435
852.698	13597.44125
852.881	13143.8482
853.065	13297.7689
853.248	12951.40937
853.431	13299.794
853.615	13210.68534
853.798	13295.74379
853.982	13253.21552
854.165	13303.8442
854.348	13164.1024
854.532	13303.8442
854.715	13370.67004
854.898	13230.93805
855.081	13022.31306
855.265	13674.37128
855.448	13285.61818
855.631	13234.98854
855.814	13192.45752
855.997	12955.46118
856.181	12797.42499
856.364	13135.74639
856.547	13064.85233
856.73	12916.96817
856.913	13099.28731
857.096	13180.30543
857.279	12929.12406
857.462	12916.96817
857.645	12752.84464
857.828	12671.78232
858.011	12572.46798
858.194	12884.55154
858.377	12304.85082
858.56	12558.27901
858.743	12400.15206
858.926	12781.21427
859.109	12708.26152
859.292	12639.35475
859.475	12387.98679
859.658	12762.97678
859.841	12349.4618
860.023	12469.08407
860.206	11990.44612
860.389	11949.86431
860.572	11866.66141
860.755	12195.33659
860.937	11998.5621
861.12	12004.649
861.303	12081.74362
861.486	12124.34375
861.668	12000.59108
861.851	11943.77676
862.034	12057.39917
862.216	11962.03919
862.399	11671.78918
862.581	11474.80314
862.764	11448.39622
862.947	11761.11553
863.129	11578.38399
863.312	11716.45449
863.494	11748.93567
863.677	11848.3955
863.859	11688.03161
864.042	11663.66775
864.224	11426.05064
864.406	11582.44549
864.589	11202.52854
864.771	11182.20221
864.954	11035.82118
865.136	11135.44765
865.318	10958.54171
865.501	11125.28287
865.683	11113.08478
865.865	11188.30022
866.048	10791.72495
866.23	10938.20232
866.412	11062.25523
866.594	10915.82769
866.777	11141.54639
866.959	11308.20876
867.141	10934.13431
867.323	10897.52015
867.505	10791.72495
867.687	11043.95493
867.869	11013.45245
868.052	11216.75635
868.234	10838.52286
868.416	11054.12187
868.598	10824.28067
868.78	10626.86476
868.962	10905.65695
869.144	10657.40042
869.326	10610.57794
869.508	10588.18228
869.69	10545.42272
869.872	10590.21831
870.054	10755.09616
870.236	10541.35009
870.417	10763.23623
870.599	10734.74517
870.781	10590.21831
870.963	10793.75977
871.145	10677.756
871.327	10490.43798
871.508	10555.60407
871.69	10840.55741
871.872	10510.80377
872.054	10816.14202
872.235	10571.89357
872.417	10779.51578
872.599	10537.27741
872.78	10561.71273
872.962	10596.32633
873.144	10710.3224
873.325	10278.55673
873.507	10637.04362
873.689	10482.2913
873.87	10808.00319
874.052	10575.96582
874.233	10468.03412
874.415	10321.35194
874.596	10417.11048
874.778	9993.10062
874.959	10131.78485
875.141	10127.70683
875.322	10235.75559
875.503	10150.13524
875.685	10584.11018
875.866	10392.66425
876.048	10514.87678
876.229	10368.21614
876.41	10278.55673
876.592	10199.06412
876.773	10199.06412
876.954	10172.56196
877.136	10205.17967
877.317	9970.66021
877.498	10144.01857
877.679	9948.21804
877.86	10286.70866
878.042	10160.32941
878.223	10421.18467
878.404	10219.44882
878.585	10305.0497
878.766	10125.6678
878.947	10229.64065
879.128	9931.89536
879.309	10360.06634
879.49	10129.74585
879.672	10508.76725
879.853	10107.31591
880.034	10410.9991
880.215	10337.65332
880.396	10309.12534
880.576	10162.36821
880.757	10225.56396
880.938	10184.79402
881.119	10307.08753
881.3	10272.44265
881.481	10854.79894
881.662	10895.48592
881.843	10871.07429
882.023	10785.62042
882.204	10710.3224
882.385	10150.13524
882.566	10329.50274
882.747	10152.1741
882.927	10392.66425
883.108	10205.17967
883.289	10482.2913
883.469	10201.10265
883.65	10449.70254
883.831	10194.98702
884.011	10353.95386
884.192	10543.38641
884.373	10441.55484
884.553	10180.71672
884.734	10390.62698
884.914	10286.70866
885.095	10227.60231
885.275	10508.76725
885.456	10620.7573
885.636	10490.43798
885.817	10661.47164
885.997	10453.77632
886.178	10520.9862
886.358	10160.32941
886.538	10480.2546
886.719	10388.5897
886.899	10637.04362
887.08	10392.66425
887.26	10649.25785
887.44	10003.30024
887.621	10380.44043
887.801	9954.33881
887.981	10262.25224
888.161	9921.69322
888.342	9956.37903
888.522	10066.52985
888.702	10211.2951
888.882	10146.05747
889.062	10506.73072
889.242	10211.2951
889.423	10250.0233
889.603	9978.82056
889.783	10111.39421
889.963	9844.14487
890.143	10364.14127
890.323	10339.69094
890.503	10675.7205
890.683	10345.8037
890.863	10433.40693
891.043	10539.31376
891.223	10590.21831
891.403	10465.99733
891.583	10628.90056
891.763	10425.25881
891.943	10549.4953
892.122	10258.17598
892.302	10518.94974
892.482	10425.25881
892.662	10596.32633
892.842	10288.7466
893.022	10329.50274
893.201	9825.77502
893.381	10441.55484
893.561	10270.40459
893.741	10439.51788
893.92	10192.94844
894.1	10380.44043
894.28	9813.52778
894.459	10091.00216
894.639	10035.93658
894.819	10091.00216
894.998	9652.22165
895.178	10209.25664
895.357	9797.19729
895.537	10050.21384
895.716	10033.89692
895.896	10221.48721
896.075	10023.69838
896.255	10123.62876
896.434	10066.52985
896.614	10311.16314
896.793	9878.84018
896.973	9856.39076
897.152	9960.45944
897.331	10037.97624
897.511	9940.05682
897.69	10042.05549
897.87	9731.86568
898.049	9735.94936
898.228	9613.4122
898.407	9668.5608
898.587	9456.07354
898.766	9431.5447
898.945	9435.633
899.124	9621.58307
899.304	9427.45633
899.483	9523.51593
899.662	9204.54077
899.841	9061.27851
900.02	8936.36639
900.199	9247.50318
900.378	9210.67871
900.557	9380.43542
900.737	9085.84374
900.916	9353.85457
901.095	9220.90828
901.274	9061.27851
901.453	8897.44592
901.632	9012.14055
901.811	9161.5709
901.989	9098.12542
902.168	9087.89073
902.347	9036.71079
902.526	8897.44592
902.705	9085.84374
902.884	9038.75819
903.063	9145.19945
903.242	8868.76355
903.42	8885.15391
903.599	8881.05643
903.778	9091.98466
903.957	8764.24792
904.135	8909.73729
904.314	8780.64565
904.493	9122.68691
904.672	8756.04862
904.85	8831.88105
905.029	8862.61687
905.207	8932.2698
905.386	8626.87078
905.565	8503.77543
905.743	8678.1406
905.922	8680.19116
906.1	8123.79523
906.279	8448.36027
906.457	8232.72303
906.636	8702.74601
906.814	8300.5179
906.993	8392.93114
907.171	8446.30759
907.35	8610.46197
907.528	8308.73401
907.707	8495.56666
907.885	8035.37851
908.063	8536.6075
908.242	8423.72684
908.42	8308.73401
908.598	8138.18513
908.777	8097.06852
908.955	8045.66144
909.133	8368.29146
909.311	7963.38375
909.49	8076.50721
909.668	7819.31883
909.846	7977.7847
910.024	7841.96431
910.202	7990.12758
910.38	7891.36393
910.559	7889.30585
910.737	7619.51706
910.915	7936.63647
911.093	7607.15166
911.271	7726.65191
911.449	7537.06652
911.627	7431.89224
911.805	7388.56882
911.983	7343.17207
912.161	7254.41147
912.339	7295.70052
912.517	7235.82852
912.695	7460.7692
912.872	7499.95259
913.05	7491.7041
913.228	7066.43447
913.406	7233.76364
913.584	7400.94791
913.762	7293.63628
913.939	6992.01892
914.117	7310.14961
914.295	6781.01586
914.473	7318.40575
914.65	7244.08783
914.828	7520.5723
915.006	7202.78775
915.184	7103.63136
915.361	6737.54466
915.539	6704.41696
915.716	6617.42879
915.894	6818.26887
916.072	6702.34629
916.249	6747.89586
916.427	6573.91946
916.604	6857.58348
916.782	6410.15004
916.959	6681.63827
917.137	6441.25665
917.314	6882.40953
917.492	6379.0382
917.669	6323.02365
917.847	6071.78587
918.024	6408.07608
918.201	6021.9127
918.379	6237.93195
918.556	5992.81376
918.733	6167.33823
918.911	5653.67868
919.088	5884.69152
919.265	5801.47716
919.442	6051.00703
919.62	5888.85125
919.797	6067.63029
919.974	5689.07788
920.151	6057.24093
920.328	5893.01088
920.506	6080.09674
920.683	6034.38226
920.86	5686.99576
921.037	5649.51362
921.214	5689.07788
921.391	5680.74927
921.568	6192.25675
921.745	5774.42436
921.922	5905.48921
922.099	5547.44017
922.276	5759.85582
922.453	5628.6869
922.63	5684.91362
922.807	5343.12371
922.984	5351.46757
923.161	5295.13921
923.338	5418.20497
923.514	5111.43227
923.691	5286.79282
923.868	5261.75139
924.045	5468.24223
924.222	5286.79282
924.399	5268.01207
924.575	5071.74462
924.752	5226.27028
924.929	5134.40551
925.105	5280.53278
925.282	4954.72192
925.459	5203.30831
925.635	4967.26353
925.812	5284.70616
925.989	4816.70976
926.165	4841.81029
926.342	4779.05283
926.518	4969.35371
926.695	4716.27494
926.871	4848.08491
927.048	4496.39319
927.224	4548.76827
927.401	4049.60781
927.577	4439.81262
927.754	4236.41074
927.93	4402.08336
928.107	4303.53484
928.283	4615.78813
928.459	4511.05961
928.636	4575.99784
928.812	4347.57307
928.988	4548.76827
929.165	4062.20647
929.341	4267.87789
929.517	4034.90843
929.693	3982.40243
929.87	3717.58079
930.046	4018.10791
930.222	3578.74137
930.398	3944.59021
930.574	3734.40416
930.751	3826.91042
930.927	3850.03103
931.103	4099.99797
931.279	3612.40697
931.455	4053.80744
931.631	3711.27171
931.807	3934.08564
931.983	3587.15822
932.159	3686.03365
932.335	3214.43741
932.511	3397.70827
932.687	3161.7498
932.863	3631.34176
933.039	3281.86241
933.215	3629.23797
933.391	3288.18261
933.566	3427.18786
933.742	3165.96519
933.918	3090.07841
934.094	3066.88668
934.27	2978.31919
934.445	2773.67109
934.621	3212.3301
934.797	2752.56586
934.973	2723.01631
935.148	2655.46488
935.324	2685.02025
935.5	2372.4599
935.675	2393.58653
935.851	2271.03829
936.027	2444.28618
936.202	2106.18398
936.378	2275.26463
936.553	2082.93136
936.729	2328.0907
936.904	1865.16316
937.08	1865.16316
937.255	1666.37647
937.431	1803.83912
937.606	1418.92003
937.782	1700.21475
937.957	1217.99641
938.133	1573.31798
938.308	1289.90392
938.483	1313.16871
938.659	1302.59378
938.834	1368.15904
939.009	1072.07901
939.185	1175.69951
939.36	1154.55162
939.535	1302.59378
939.71	1050.93341
939.886	1146.09257
940.061	1006.52951
940.236	1116.48645
940.411	837.39972
940.586	1053.04795
940.761	733.83477
940.937	907.15983
941.112	854.31041
941.287	883.90545
941.462	797.23912
941.637	799.35276
941.812	744.40153
941.987	795.1255
942.162	729.60814
942.337	617.61889
942.512	560.58096
942.687	585.92998
942.862	581.70501
943.037	514.11286
943.212	473.9869
943.386	621.84429
943.561	541.57047
943.736	505.66485
943.911	558.46863
944.086	507.77683
944.26	454.98174
944.435	560.58096
944.61	497.21707
944.785	507.77683
944.959	554.24401
945.134	552.13172
945.309	465.54001
945.483	537.34607
945.658	539.45826
945.833	630.29525
946.007	482.43403
946.182	598.60519
946.357	545.79493
946.531	689.45734
946.706	526.78531
946.88	664.10102
947.055	518.33696
947.229	588.04248
947.404	585.92998
947.578	659.87514
947.752	619.73158
947.927	672.55294
948.101	539.45826
948.276	729.60814
948.45	512.00084
948.624	611.28088
948.799	628.18249
948.973	566.91803
949.147	664.10102
949.321	645.0849
949.496	516.2249
949.67	661.98807
949.844	562.6933
950.018	651.4235
950.193	414.86386
950.367	634.5208
950.541	518.33696
950.715	509.88883
950.889	552.13172
951.063	632.40802
951.237	569.03042
951.411	634.5208
951.585	596.49263
951.759	771.8763
951.933	702.13611
952.107	704.24928
952.281	670.43995
952.455	706.36246
952.629	634.5208
952.803	693.68355
952.977	596.49263
953.151	738.06144
953.325	543.68269
953.499	752.85512
953.672	564.80566
953.846	642.97205
954.02	613.39353
954.194	634.5208
954.368	541.57047
954.541	630.29525
954.715	501.44093
954.889	664.10102
955.062	575.36765
955.236	727.49485
955.41	645.0849
955.583	738.06144
955.757	659.87514
955.93	708.47565
956.104	537.34607
956.278	636.6336
956.451	566.91803
956.625	571.14282
956.798	638.7464
956.972	672.55294
957.145	543.68269
957.319	653.53639
957.492	482.43403
957.665	664.10102
957.839	550.01944
958.012	592.26753
958.185	516.2249
958.359	678.89201
958.532	583.81748
958.705	761.30888
958.879	577.48009
959.052	702.13611
959.225	592.26753
959.398	558.46863
959.572	579.59254
959.745	706.36246
959.918	626.06974
960.091	630.29525
960.264	533.12172
960.438	609.16823
960.611	512.00084
960.784	657.76221
960.957	573.25523
961.13	712.70206
961.303	729.60814
961.476	664.10102
961.649	528.89743
961.822	617.61889
961.995	526.78531
962.168	512.00084
962.341	507.77683
962.514	518.33696
962.686	482.43403
962.859	526.78531
963.032	492.99327
963.205	520.44902
963.378	423.30926
963.551	435.97783
963.723	457.09336
963.896	467.65171
964.069	442.31232
964.242	522.5611
964.414	469.76342
964.587	476.09866
964.76	507.77683
964.932	501.44093
965.105	507.77683
965.278	528.89743
965.45	533.12172
965.623	575.36765
965.795	564.80566
965.968	573.25523
966.14	503.55289
966.313	522.5611
966.485	433.86636
966.658	433.86636
966.83	370.52983
967.003	543.68269
967.175	370.52983
967.348	560.58096
967.52	423.30926
967.692	499.329
967.865	482.43403
968.037	505.66485
968.209	448.64696
968.382	499.329
968.554	294.5462
968.726	457.09336
968.898	419.08653
969.071	486.65768
969.243	414.86386
969.415	406.41873
969.587	296.65654
969.759	412.75256
969.932	362.08609
970.104	452.87013
970.276	410.64126
970.448	431.75491
970.62	246.01343
970.792	387.41813
970.964	302.98769
971.136	442.31232
971.308	290.32557
971.48	402.19626
971.652	307.20854
971.824	307.20854
971.996	355.75346
972.168	294.5462
972.339	381.08489
972.511	364.197
972.683	349.42099
972.855	326.20327
973.027	275.55393
973.199	321.98209
973.37	330.42451
973.542	302.98769
973.714	254.45319
973.886	305.0981
974.057	186.94385
974.229	237.57397
974.401	178.50662
974.572	237.57397
974.744	239.6838
974.915	324.09267
975.087	237.57397
975.259	321.98209
975.43	330.42451
975.602	349.42099
975.773	246.01343
975.945	246.01343
976.116	281.88452
976.288	281.88452
976.459	241.79366
976.63	205.9288
976.802	241.79366
976.973	246.01343
977.145	237.57397
977.316	233.35436
977.487	178.50662
977.659	239.6838
977.83	189.0532
978.001	256.56318
978.172	163.74226
978.344	262.89326
978.515	203.81928
978.686	237.57397
978.857	119.45538
979.028	161.63315
979.2	155.30595
979.371	208.03833
979.542	214.36707
979.713	229.13482
979.884	239.6838
980.055	197.49084
980.226	186.94385
980.397	246.01343
980.568	129.99903
980.739	191.16258
980.91	212.25747
981.081	220.69599
981.252	186.94385
981.423	170.06972
981.594	180.61589
981.765	191.16258
981.936	129.99903
982.106	220.69599
982.277	220.69599
982.448	186.94385
982.619	98.36974
982.79	102.58669
982.96	170.06972
983.131	138.43433
983.302	178.50662
983.472	199.6003
983.643	163.74226
983.814	161.63315
983.984	161.63315
984.155	129.99903
984.326	111.02086
984.496	170.06972
984.667	102.58669
984.837	85.71941
985.008	180.61589
985.178	140.5432
985.349	163.74226
985.519	184.83451
985.69	60.42118
985.86	163.74226
986.031	144.76102
986.201	161.63315
986.371	216.47669
986.542	144.76102
986.712	81.50281
986.882	113.12946
987.053	98.36974
987.223	30.91075
987.393	60.42118
987.563	47.77329
987.734	77.2863
987.904	54.09713
988.074	45.6654
988.244	113.12946
988.414	85.71941
988.585	125.7815
988.755	144.76102
988.925	56.20513
989.095	79.39455
989.265	161.63315
989.435	43.55752
989.605	186.94385
989.775	102.58669
989.945	96.26129
990.115	140.5432
990.285	111.02086
990.455	47.77329
990.625	77.2863
990.795	56.20513
990.965	5.61975
991.134	60.42118
991.304	125.7815
991.474	104.6952
991.644	174.28813
991.814	77.2863
991.984	68.85356
992.153	49.88122
992.323	106.80373
992.493	89.9361
992.662	70.96171
992.832	85.71941
993.002	45.6654
993.171	96.26129
993.341	111.02086
993.511	43.55752
993.68	113.12946
993.85	79.39455
994.019	43.55752
994.189	47.77329
994.358	102.58669
994.528	54.09713
994.697	148.97893
994.867	102.58669
995.036	45.6654
995.206	73.06989
995.375	18.26482
995.544	85.71941
995.714	47.77329
995.883	89.9361
996.052	77.2863
996.222	89.9361
996.391	37.23403
996.56	35.12624
996.73	119.45538
996.899	62.52924
997.068	115.23808
997.237	45.6654
997.406	30.91075
997.576	41.44967
997.745	68.85356
997.914	87.82774
998.083	14.04971
998.252	18.26482
998.421	35.12624
998.59	77.2863
998.759	54.09713
998.928	39.34183
999.097	54.09713
999.266	30.91075
999.435	73.06989
999.604	77.2863
999.773	56.20513
999.942	18.26482
1000.111	37.23403
1000.28	54.09713
1000.448	56.20513
1000.617	5.61975
1000.786	-28.09618
1000.955	155.30595
1001.124	83.6111
1001.292	77.2863
1001.461	-44.95179
1001.63	51.98916
1001.798	54.09713
1001.967	1.40492
1002.136	33.01848
1002.304	35.12624
1002.473	9.83468
1002.642	35.12624
1002.81	22.48004
1002.979	77.2863
1003.147	37.23403
1003.316	54.09713
1003.484	89.9361
1003.653	94.15287
1003.821	-38.63112
1003.99	51.98916
1004.158	28.80304
1004.327	73.06989
1004.495	94.15287
1004.663	51.98916
1004.832	119.45538
1005	3.51233
1005.168	43.55752
1005.337	70.96171
1005.505	16.15725
1005.673	62.52924
1005.842	43.55752
1006.01	43.55752
1006.178	-23.88203
1006.346	81.50281
1006.514	9.83468
1006.683	45.6654
1006.851	28.80304
1007.019	9.83468
1007.187	22.48004
1007.355	35.12624
1007.523	11.94218
1007.691	119.45538
1007.859	104.6952
1008.027	94.15287
1008.195	62.52924
1008.363	-15.45344
1008.531	1.40492
1008.699	70.96171
1008.867	-23.88203
1009.035	-13.34623
1009.203	54.09713
1009.37	-4.91714
1009.538	54.09713
1009.706	-4.91714
1009.874	14.04971
1010.042	47.77329
1010.209	-66.01904
1010.377	35.12624
1010.545	35.12624
1010.713	11.94218
1010.88	-2.80981
1011.048	45.6654
1011.216	43.55752
1011.383	-7.02445
1011.551	9.83468
1011.718	3.51233
1011.886	-61.80579
1012.054	113.12946
1012.221	18.26482
1012.389	68.85356
1012.556	79.39455
1012.724	18.26482
1012.891	-53.37899
1013.058	24.58768
1013.226	51.98916
1013.393	-15.45344
1013.561	11.94218
1013.728	102.58669
1013.895	-13.34623
1014.063	45.6654
1014.23	5.61975
1014.397	7.72721
1014.565	9.83468
1014.732	-34.41722
1014.899	-40.73804
1015.066	33.01848
1015.233	28.80304
1015.401	28.80304
1015.568	24.58768
1015.735	18.26482
1015.902	-13.34623
1016.069	-38.63112
1016.236	24.58768
1016.403	11.94218
1016.57	18.26482
1016.737	-70.23219
1016.904	35.12624
1017.071	9.83468
1017.238	-7.02445
1017.405	26.69535
1017.572	28.80304
1017.739	28.80304
1017.906	-11.23899
1018.073	22.48004
1018.24	26.69535
1018.407	26.69535
1018.573	-13.34623
1018.74	60.42118
1018.907	-32.31023
1019.074	-11.23899
1019.241	14.04971
1019.407	-57.59244
1019.574	-55.48573
1019.741	20.37242
1019.907	51.98916
1020.074	-82.87101
1020.241	24.58768
1020.407	43.55752
1020.574	37.23403
1020.74	35.12624
1020.907	-40.73804
1021.073	-7.02445
1021.24	9.83468
1021.406	-30.20322
1021.573	1.40492
1021.739	64.63732
1021.906	-19.66778
1022.072	3.51233
1022.239	22.48004
1022.405	47.77329
1022.571	9.83468
1022.738	-11.23899
1022.904	-13.34623
1023.07	22.48004
1023.237	-40.73804
1023.403	-23.88203
1023.569	1.40492
1023.735	58.31314
1023.902	-9.13173
1024.068	35.12624
1024.234	-15.45344
1024.4	5.61975
1024.566	-11.23899
1024.732	-32.31023
1024.898	-7.02445
1025.065	35.12624
1025.231	-23.88203
1025.397	-47.05863
1025.563	47.77329
1025.729	35.12624
1025.895	1.40492
1026.061	-42.84492
1026.227	-38.63112
1026.392	-11.23899
1026.558	39.34183
1026.724	47.77329
1026.89	-47.05863
1027.056	-7.02445
1027.222	-21.77492
1027.388	49.88122
1027.553	-15.45344
1027.719	-4.91714
1027.885	-0.70246
1028.051	33.01848
1028.216	-44.95179
1028.382	9.83468
1028.548	-23.88203
1028.713	1.40492
1028.879	-40.73804
1029.045	37.23403
1029.21	45.6654
1029.376	115.23808
1029.541	-4.91714
1029.707	-34.41722
1029.873	22.48004
1030.038	26.69535
1030.204	-38.63112
1030.369	11.94218
1030.534	58.31314
1030.7	20.37242
1030.865	-36.52418
1031.031	35.12624
1031.196	-13.34623
1031.361	-36.52418
1031.527	-4.91714
1031.692	-7.02445
1031.857	11.94218
1032.023	11.94218
1032.188	3.51233
1032.353	-36.52418
1032.518	-34.41722
1032.684	-7.02445
1032.849	18.26482
1033.014	30.91075
1033.179	1.40492
1033.344	5.61975
1033.509	-30.20322
1033.674	-47.05863
1033.839	-2.80981
1034.004	-7.02445
1034.17	39.34183
1034.335	26.69535
1034.5	-82.87101
1034.664	1.40492
1034.829	68.85356
1034.994	-7.02445
1035.159	35.12624
1035.324	37.23403
1035.489	-40.73804
1035.654	11.94218
1035.819	37.23403
1035.984	54.09713
1036.148	24.58768
1036.313	45.6654
1036.478	-2.80981
1036.643	47.77329
1036.807	-21.77492
1036.972	51.98916
1037.137	7.72721
1037.301	18.26482
1037.466	-4.91714
1037.631	24.58768
1037.795	-23.88203
1037.96	-2.80981
1038.124	3.51233
1038.289	-4.91714
1038.454	3.51233
1038.618	41.44967
1038.783	1.40492
1038.947	-40.73804
1039.111	35.12624
1039.276	11.94218
1039.44	-32.31023
1039.605	5.61975
1039.769	22.48004
1039.933	54.09713
1040.098	9.83468
1040.262	-74.44523
1040.426	-15.45344
1040.591	-28.09618
1040.755	41.44967
1040.919	-23.88203
1041.083	-57.59244
1041.248	-36.52418
1041.412	-32.31023
1041.576	37.23403
1041.74	-7.02445
1041.904	-23.88203
1042.068	-49.16544
1042.232	18.26482
1042.397	1.40492
1042.561	-4.91714
1042.725	-70.23219
1042.889	9.83468
1043.053	9.83468
1043.217	-32.31023
1043.381	-23.88203
1043.544	11.94218
1043.708	26.69535
1043.872	9.83468
1044.036	28.80304
1044.2	7.72721
1044.364	-57.59244
1044.528	-2.80981
1044.691	60.42118
1044.855	-15.45344
1045.019	-74.44523
1045.183	9.83468
1045.346	35.12624
1045.51	3.51233
1045.674	20.37242
1045.837	45.6654
1046.001	5.61975
1046.165	83.6111
1046.328	35.12624
1046.492	-59.69913
1046.655	-55.48573
1046.819	14.04971
1046.983	11.94218
1047.146	28.80304
1047.31	26.69535
1047.473	-91.29638
1047.636	18.26482
1047.8	11.94218
1047.963	-15.45344
1048.127	43.55752
1048.29	14.04971
