Data from mixed_try1_USB4F045381__28__00050.txt Node

Date: Thu Apr 03 19:34:55 EDT 2025
User: mmckonesweet
Spectrometer: USB4F04538
Trigger mode: 4
Integration Time (sec): 2.700000E-3
Scans to average: 1
Electric dark correction enabled: true
Nonlinearity correction enabled: true
Boxcar width: 0
XAxis mode: Wavelengths
Number of Pixels in Spectrum: 3648
>>>>>Begin Spectral Data<<<<<
345.52	-28.09618
345.736	-28.09618
345.952	-28.09618
346.168	-51.27223
346.384	5.61975
346.6	16.15725
346.816	14.04971
347.032	9.83468
347.248	-32.31023
347.464	-11.23899
347.68	-7.02445
347.896	18.26482
348.112	30.91075
348.328	-28.09618
348.544	5.61975
348.76	-7.02445
348.975	-9.13173
349.191	18.26482
349.407	39.34183
349.623	-0.70246
349.839	-19.66778
350.055	39.34183
350.27	22.48004
350.486	45.6654
350.702	75.17808
350.918	-7.02445
351.133	-36.52418
351.349	-28.09618
351.565	56.20513
351.781	60.42118
351.996	30.91075
352.212	-19.66778
352.428	49.88122
352.644	22.48004
352.859	24.58768
353.075	-59.69913
353.291	-61.80579
353.506	11.94218
353.722	26.69535
353.938	49.88122
354.153	51.98916
354.369	30.91075
354.584	-40.73804
354.8	35.12624
355.016	81.50281
355.231	-63.91243
355.447	22.48004
355.662	-13.34623
355.878	54.09713
356.093	20.37242
356.309	33.01848
356.524	16.15725
356.74	14.04971
356.955	33.01848
357.171	47.77329
357.386	-7.02445
357.602	47.77329
357.817	43.55752
358.033	3.51233
358.248	-17.56062
358.464	-17.56062
358.679	7.72721
358.895	-19.66778
359.11	9.83468
359.325	7.72721
359.541	-0.70246
359.756	-44.95179
359.972	66.74543
360.187	7.72721
360.402	49.88122
360.618	43.55752
360.833	3.51233
361.048	64.63732
361.264	62.52924
361.479	39.34183
361.694	41.44967
361.909	-17.56062
362.125	58.31314
362.34	-61.80579
362.555	60.42118
362.77	33.01848
362.986	-2.80981
363.201	28.80304
363.416	5.61975
363.631	58.31314
363.847	73.06989
364.062	26.69535
364.277	-15.45344
364.492	47.77329
364.707	47.77329
364.922	16.15725
365.138	49.88122
365.353	54.09713
365.568	81.50281
365.783	56.20513
365.998	14.04971
366.213	43.55752
366.428	39.34183
366.643	-51.27223
366.858	-11.23899
367.073	-13.34623
367.288	5.61975
367.503	30.91075
367.718	-19.66778
367.933	33.01848
368.148	9.83468
368.363	30.91075
368.578	30.91075
368.793	41.44967
369.008	5.61975
369.223	-9.13173
369.438	-19.66778
369.653	56.20513
369.868	-9.13173
370.083	33.01848
370.298	62.52924
370.513	68.85356
370.728	5.61975
370.943	-44.95179
371.157	-25.98912
371.372	39.34183
371.587	-19.66778
371.802	5.61975
372.017	37.23403
372.232	73.06989
372.446	-2.80981
372.661	41.44967
372.876	1.40492
373.091	43.55752
373.306	66.74543
373.52	-28.09618
373.735	-23.88203
373.95	7.72721
374.165	24.58768
374.379	39.34183
374.594	22.48004
374.809	9.83468
375.023	16.15725
375.238	7.72721
375.453	5.61975
375.667	-11.23899
375.882	-15.45344
376.097	30.91075
376.311	-21.77492
376.526	-80.7646
376.741	-44.95179
376.955	33.01848
377.17	39.34183
377.384	35.12624
377.599	5.61975
377.813	39.34183
378.028	-23.88203
378.242	20.37242
378.457	-25.98912
378.672	7.72721
378.886	-7.02445
379.101	30.91075
379.315	-19.66778
379.53	39.34183
379.744	9.83468
379.958	-32.31023
380.173	-19.66778
380.387	51.98916
380.602	39.34183
380.816	30.91075
381.031	60.42118
381.245	35.12624
381.459	1.40492
381.674	22.48004
381.888	14.04971
382.103	49.88122
382.317	39.34183
382.531	39.34183
382.746	18.26482
382.96	33.01848
383.174	51.98916
383.388	-19.66778
383.603	66.74543
383.817	24.58768
384.031	18.26482
384.246	26.69535
384.46	39.34183
384.674	58.31314
384.888	24.58768
385.103	-9.13173
385.317	47.77329
385.531	41.44967
385.745	24.58768
385.959	66.74543
386.174	-11.23899
386.388	24.58768
386.602	92.04447
386.816	77.2863
387.03	66.74543
387.244	1.40492
387.458	51.98916
387.672	68.85356
387.887	9.83468
388.101	30.91075
388.315	39.34183
388.529	56.20513
388.743	28.80304
388.957	60.42118
389.171	-32.31023
389.385	-21.77492
389.599	49.88122
389.813	43.55752
390.027	7.72721
390.241	28.80304
390.455	33.01848
390.669	73.06989
390.883	9.83468
391.097	-25.98912
391.311	60.42118
391.525	-0.70246
391.738	18.26482
391.952	47.77329
392.166	7.72721
392.38	87.82774
392.594	-44.95179
392.808	1.40492
393.022	-2.80981
393.236	30.91075
393.449	-23.88203
393.663	98.36974
393.877	-11.23899
394.091	26.69535
394.305	-2.80981
394.518	117.34672
394.732	75.17808
394.946	35.12624
395.16	-0.70246
395.373	94.15287
395.587	7.72721
395.801	51.98916
396.015	-110.25192
396.228	14.04971
396.442	73.06989
396.656	20.37242
396.869	64.63732
397.083	56.20513
397.297	60.42118
397.51	47.77329
397.724	9.83468
397.938	-25.98912
398.151	-19.66778
398.365	64.63732
398.578	-23.88203
398.792	39.34183
399.005	-28.09618
399.219	62.52924
399.433	-40.73804
399.646	30.91075
399.86	30.91075
400.073	85.71941
400.287	41.44967
400.5	64.63732
400.714	68.85356
400.927	68.85356
401.141	-36.52418
401.354	-0.70246
401.567	89.9361
401.781	30.91075
401.994	-53.37899
402.208	56.20513
402.421	43.55752
402.635	-2.80981
402.848	-44.95179
403.061	-17.56062
403.275	3.51233
403.488	22.48004
403.701	77.2863
403.915	60.42118
404.128	-36.52418
404.341	35.12624
404.555	47.77329
404.768	35.12624
404.981	83.6111
405.195	14.04971
405.408	102.58669
405.621	56.20513
405.834	47.77329
406.048	-15.45344
406.261	56.20513
406.474	73.06989
406.687	-11.23899
406.9	100.4782
407.114	20.37242
407.327	30.91075
407.54	-28.09618
407.753	81.50281
407.966	28.80304
408.179	47.77329
408.392	-11.23899
408.605	7.72721
408.819	43.55752
409.032	26.69535
409.245	22.48004
409.458	33.01848
409.671	26.69535
409.884	89.9361
410.097	-49.16544
410.31	98.36974
410.523	-19.66778
410.736	62.52924
410.949	-23.88203
411.162	-7.02445
411.375	16.15725
411.588	47.77329
411.801	26.69535
412.014	113.12946
412.227	-11.23899
412.44	43.55752
412.653	47.77329
412.865	-11.23899
413.078	-9.13173
413.291	-55.48573
413.504	51.98916
413.717	22.48004
413.93	-51.27223
414.143	64.63732
414.356	-11.23899
414.568	-7.02445
414.781	-11.23899
414.994	37.23403
415.207	60.42118
415.42	92.04447
415.632	-32.31023
415.845	43.55752
416.058	22.48004
416.271	75.17808
416.483	81.50281
416.696	30.91075
416.909	98.36974
417.121	45.6654
417.334	43.55752
417.547	79.39455
417.759	18.26482
417.972	56.20513
418.185	60.42118
418.397	64.63732
418.61	64.63732
418.823	-4.91714
419.035	77.2863
419.248	5.61975
419.46	47.77329
419.673	7.72721
419.885	-7.02445
420.098	7.72721
420.311	47.77329
420.523	43.55752
420.736	-4.91714
420.948	41.44967
421.161	37.23403
421.373	-11.23899
421.586	47.77329
421.798	83.6111
422.01	64.63732
422.223	-9.13173
422.435	26.69535
422.648	9.83468
422.86	70.96171
423.073	26.69535
423.285	28.80304
423.497	70.96171
423.71	14.04971
423.922	56.20513
424.134	98.36974
424.347	39.34183
424.559	47.77329
424.771	136.32547
424.984	-19.66778
425.196	18.26482
425.408	-23.88203
425.621	77.2863
425.833	30.91075
426.045	24.58768
426.257	11.94218
426.47	22.48004
426.682	47.77329
426.894	5.61975
427.106	125.7815
427.318	115.23808
427.531	58.31314
427.743	30.91075
427.955	39.34183
428.167	81.50281
428.379	89.9361
428.591	41.44967
428.804	-4.91714
429.016	49.88122
429.228	43.55752
429.44	14.04971
429.652	39.34183
429.864	75.17808
430.076	43.55752
430.288	14.04971
430.5	37.23403
430.712	39.34183
430.924	-19.66778
431.136	70.96171
431.348	98.36974
431.56	83.6111
431.772	5.61975
431.984	125.7815
432.196	22.48004
432.408	159.52406
432.62	56.20513
432.832	92.04447
433.044	-17.56062
433.256	16.15725
433.468	81.50281
433.679	58.31314
433.891	58.31314
434.103	115.23808
434.315	26.69535
434.527	64.63732
434.739	51.98916
434.95	89.9361
435.162	100.4782
435.374	98.36974
435.586	35.12624
435.798	-7.02445
436.009	111.02086
436.221	98.36974
436.433	89.9361
436.645	5.61975
436.856	79.39455
437.068	58.31314
437.28	56.20513
437.491	89.9361
437.703	81.50281
437.915	14.04971
438.126	123.67278
438.338	64.63732
438.55	83.6111
438.761	39.34183
438.973	64.63732
439.184	73.06989
439.396	35.12624
439.608	-2.80981
439.819	47.77329
440.031	77.2863
440.242	108.91229
440.454	64.63732
440.665	66.74543
440.877	119.45538
441.088	66.74543
441.3	-2.80981
441.511	89.9361
441.723	123.67278
441.934	106.80373
442.146	30.91075
442.357	81.50281
442.569	60.42118
442.78	123.67278
442.991	106.80373
443.203	100.4782
443.414	45.6654
443.626	79.39455
443.837	62.52924
444.048	79.39455
444.26	64.63732
444.471	47.77329
444.682	89.9361
444.894	60.42118
445.105	85.71941
445.316	81.50281
445.528	132.10782
445.739	-0.70246
445.95	5.61975
446.161	106.80373
446.373	87.82774
446.584	108.91229
446.795	123.67278
447.006	106.80373
447.217	14.04971
447.429	94.15287
447.64	33.01848
447.851	47.77329
448.062	98.36974
448.273	64.63732
448.484	54.09713
448.695	111.02086
448.907	165.85139
449.118	129.99903
449.329	75.17808
449.54	73.06989
449.751	89.9361
449.962	111.02086
450.173	89.9361
450.384	75.17808
450.595	140.5432
450.806	199.6003
451.017	115.23808
451.228	186.94385
451.439	111.02086
451.65	85.71941
451.861	79.39455
452.072	184.83451
452.283	96.26129
452.494	117.34672
452.705	30.91075
452.915	127.89025
453.126	146.86997
453.337	81.50281
453.548	140.5432
453.759	92.04447
453.97	73.06989
454.181	127.89025
454.391	151.08791
454.602	96.26129
454.813	167.96055
455.024	161.63315
455.235	75.17808
455.445	212.25747
455.656	159.52406
455.867	102.58669
456.078	115.23808
456.288	92.04447
456.499	161.63315
456.71	117.34672
456.921	176.39736
457.131	208.03833
457.342	231.24458
457.553	220.69599
457.763	129.99903
457.974	199.6003
458.184	191.16258
458.395	176.39736
458.606	132.10782
458.816	222.80567
459.027	205.9288
459.237	191.16258
459.448	197.49084
459.659	178.50662
459.869	153.19692
460.08	254.45319
460.29	241.79366
460.501	224.91537
460.711	140.5432
460.922	267.11341
461.132	214.36707
461.343	203.81928
461.553	237.57397
461.764	271.33363
461.974	246.01343
462.184	199.6003
462.395	286.10501
462.605	296.65654
462.816	233.35436
463.026	205.9288
463.236	283.99475
463.447	290.32557
463.657	199.6003
463.867	330.42451
464.078	317.76099
464.288	368.41887
464.498	330.42451
464.709	332.53516
464.919	321.98209
465.129	353.64262
465.339	321.98209
465.55	311.42946
465.76	338.86722
465.97	370.52983
466.18	372.64081
466.391	402.19626
466.601	461.31665
466.811	505.66485
467.021	381.08489
467.231	480.32222
467.441	435.97783
467.651	499.329
467.862	564.80566
468.072	554.24401
468.282	497.21707
468.492	554.24401
468.702	564.80566
468.912	552.13172
469.122	604.94298
469.332	628.18249
469.542	581.70501
469.752	579.59254
469.962	812.03474
470.172	769.7628
470.382	799.35276
470.592	818.37586
470.802	716.92852
471.012	807.80738
471.222	824.71707
471.432	773.98982
471.642	816.26215
471.852	985.38575
472.062	816.26215
472.272	917.73031
472.482	799.35276
472.691	1061.50614
472.901	1027.6739
473.111	1036.13182
473.321	1112.25708
473.531	1116.48645
473.741	1207.42206
473.95	1338.54874
474.16	1059.39158
474.37	1433.72538
474.58	1266.6394
474.79	1382.96428
474.999	1414.68993
475.209	1249.71993
475.419	1442.18558
475.628	1615.6178
475.838	1410.45983
476.048	1545.82276
476.258	1621.96271
476.467	1668.49139
476.677	1812.29784
476.886	1822.87113
477.096	1827.10042
477.306	1937.05491
477.515	1746.74107
477.725	1918.02535
477.935	1983.56959
478.144	2123.09441
478.354	1848.24658
478.563	2163.25466
478.773	2161.14104
478.982	2266.81192
479.192	2294.2827
479.401	2383.02334
479.611	2290.05653
479.82	2425.27452
480.03	2490.7554
480.239	2507.65196
480.449	2518.21195
480.658	2849.63858
480.868	2735.68072
481.077	2938.24418
481.287	2687.13125
481.496	2910.82136
481.705	2917.14993
481.915	3163.85751
482.124	2976.21012
482.333	3222.86647
482.543	2877.06683
482.752	3292.396
482.961	3235.50956
483.171	3410.34281
483.38	3404.02562
483.589	3490.34662
483.799	3439.82091
484.008	3597.67886
484.217	3513.50076
484.426	3850.03103
484.636	3780.66203
484.845	4003.40637
485.054	3557.69795
485.263	3892.06235
485.472	3910.97383
485.682	4104.19661
485.891	4020.20804
486.1	4175.56067
486.309	4171.36345
486.518	4301.43755
486.727	4242.70455
486.936	4339.18557
487.146	4183.95484
487.355	4376.92659
487.564	4653.47675
487.773	4770.68362
487.982	4418.85279
488.191	4768.59126
488.4	4661.85101
488.609	4885.7283
488.818	4578.09226
489.027	4871.09009
489.236	4760.2216
489.445	5119.7865
489.654	5021.6009
489.863	5236.7066
490.072	5115.60943
490.281	5155.28782
490.49	5247.14234
490.698	5257.5775
490.907	5073.83365
491.116	5534.93749
491.325	5297.22575
491.534	5689.07788
491.743	5530.76975
491.952	5518.26594
492.16	5716.14325
492.369	5664.09091
492.578	5678.66706
492.787	5942.91911
492.996	5836.84788
493.204	5739.04161
493.413	5909.64847
493.622	6167.33823
493.831	6080.09674
494.039	6136.18531
494.248	6042.69483
494.457	6420.51949
494.665	6337.54758
494.874	6217.1719
495.083	6424.66711
495.291	6437.1094
495.5	6254.5383
495.709	6420.51949
495.917	6455.77127
496.126	6503.45417
496.335	6652.64318
496.543	6592.56756
496.752	6530.39994
496.96	6801.71289
497.169	6611.21379
497.377	6824.47698
497.586	6801.71289
497.794	7151.15019
498.003	6934.11998
498.211	7031.29742
498.42	6950.66434
498.628	7248.21735
498.837	7066.43447
499.045	7233.76364
499.254	7184.19982
499.462	7454.58164
499.671	7310.14961
499.879	7380.31565
500.087	7405.07411
500.296	7475.20609
500.504	7421.57801
500.713	7617.45622
500.921	7456.64418
501.129	7567.98948
501.338	7421.57801
501.546	7804.90675
501.754	7611.27355
501.962	7940.75166
502.171	7788.43456
502.379	7897.53805
502.587	7862.54893
502.795	8245.05096
503.004	7763.72376
503.212	8169.01733
503.42	7858.43218
503.628	8290.24733
503.837	8129.96245
504.045	8203.95507
504.253	8206.01006
504.461	8226.55879
504.669	8230.6683
504.877	8380.61165
505.085	8265.59594
505.294	8355.97057
505.502	8645.32925
505.71	8690.44364
505.918	8483.25292
506.126	8507.87971
506.334	8497.61888
506.542	8797.04221
506.75	8526.348
506.958	8680.19116
507.166	8688.39318
507.374	8772.44693
507.582	8690.44364
507.79	8901.54311
507.998	9028.52099
508.206	8899.49453
508.414	8698.64529
508.622	9032.61592
508.83	9057.18406
509.037	9302.7297
509.245	9065.37289
509.453	9294.54876
509.661	9241.36615
509.869	9364.0783
510.077	9065.37289
510.285	9533.73296
510.492	9145.19945
510.7	9306.82007
510.908	9292.50349
511.116	9251.59446
511.324	9431.5447
511.531	9413.14653
511.739	9437.67713
511.947	9615.45494
512.155	9443.80941
512.362	9650.17919
512.57	9417.23513
512.778	9637.92408
512.985	9778.82434
513.193	9709.40435
513.401	9558.2522
513.608	9789.03169
513.816	9942.09715
514.024	9958.41925
514.231	9791.07311
514.439	9701.23613
514.646	10148.09636
514.854	10074.68751
515.061	9613.4122
515.269	9966.57995
515.477	9919.65274
515.684	10162.36821
515.892	9999.22043
516.099	10139.94072
516.307	10268.36652
516.514	10384.51509
516.722	10353.95386
516.929	10382.47777
517.136	10441.55484
517.344	10337.65332
517.551	10262.25224
517.759	10488.40133
517.966	10449.70254
518.173	10518.94974
518.381	10547.45901
518.588	10812.07263
518.796	10492.47461
519.003	10820.21137
519.21	10816.14202
519.418	11245.21045
519.625	10726.60444
519.832	10966.67715
520.039	10838.52286
520.247	10978.87997
520.454	10873.10865
520.661	11639.3026
520.868	10895.48592
521.076	11235.0485
521.283	11039.88808
521.49	11102.91941
521.697	11389.48259
521.904	11167.97316
522.112	11072.42168
522.319	11446.36485
522.526	11178.13682
522.733	11348.84767
522.94	11334.62451
523.147	11468.70938
523.354	11513.39495
523.561	11393.54586
523.768	11584.47622
523.975	11852.45465
524.183	11556.04508
524.39	11852.45465
524.597	11949.86431
524.804	11927.54293
525.011	11870.72041
525.218	11840.27709
525.425	11872.7499
525.632	11872.7499
525.838	12022.90928
526.045	12022.90928
526.252	12158.82713
526.459	12152.74198
526.666	12130.42921
526.873	12339.32324
527.08	12089.85819
527.287	12207.50588
527.494	12031.02475
527.701	12548.14384
527.907	12237.92795
528.114	12521.79166
528.321	12525.84591
528.528	12546.11679
528.735	12617.0599
528.941	12720.42083
529.148	12564.36003
529.355	12769.05599
529.562	12608.9525
529.768	12700.1552
529.975	12205.47768
530.182	12625.16721
530.388	12813.63535
530.595	12769.05599
530.802	12673.809
531.008	12860.23817
531.215	13062.8267
531.422	13091.18509
531.628	13176.2547
531.835	13198.5335
532.042	13125.61902
532.248	13301.8191
532.455	13320.04481
532.661	13573.14653
532.868	13403.06885
533.074	13431.41698
533.281	13506.33342
533.487	13518.48156
533.694	13431.41698
533.9	13807.97558
534.107	13583.26939
534.313	13664.24918
534.52	13445.59076
534.726	13678.4201
534.933	13550.87593
535.139	13982.04712
535.345	13688.54208
535.552	13967.87924
535.758	13947.6392
535.965	13901.08611
536.171	13799.87873
536.377	14340.25555
536.584	14093.36201
536.79	14394.89224
536.996	14311.92493
537.203	14115.62415
537.409	14050.8608
537.615	14251.2153
537.821	14050.8608
538.028	14633.66259
538.234	14123.71941
538.44	14390.84512
538.646	14178.36149
538.853	14611.40507
539.059	14437.38666
539.265	14704.48117
539.471	14277.52301
539.677	14579.03025
539.883	14639.7328
540.09	14833.97527
540.296	14740.90172
540.502	14829.92863
540.708	14785.41535
540.914	14985.72291
541.12	14797.55537
541.326	14967.51332
541.532	14862.30172
541.738	15070.70064
541.944	15092.95665
542.15	15179.95731
542.356	15173.8875
542.562	15226.49255
542.768	15307.42357
542.974	15234.58564
543.18	15337.7728
543.386	15483.45031
543.592	15368.1221
543.798	15732.32362
544.004	15600.80374
544.21	15529.98675
544.415	15368.1221
544.621	15667.5749
544.827	15572.47683
545.033	16005.49466
545.239	15588.66362
545.445	15983.23542
545.651	15914.43516
545.856	15956.92926
546.062	15912.41165
546.268	15902.2941
546.474	15878.0121
546.679	15896.22358
546.885	15701.97254
547.091	15965.02343
547.297	15639.24763
547.502	16124.88816
547.708	15983.23542
547.914	15845.63638
548.119	15960.97634
548.325	16207.85975
548.531	16110.72255
548.736	16108.6989
548.942	16238.21591
549.147	16149.17224
549.353	16252.38225
549.559	16638.95768
549.764	16343.45372
549.97	16475.00823
550.175	16323.21529
550.381	16553.94508
550.586	16560.01728
550.792	16622.7645
550.997	16078.34431
551.203	16624.78864
551.408	16697.65919
551.614	16723.9743
551.819	16817.09255
552.025	17066.10907
552.23	17055.98566
552.435	17009.41886
552.641	17384.02046
552.846	17138.99966
553.052	16930.46101
553.257	17327.31757
553.462	17108.62814
553.668	17037.7637
553.873	17035.73905
554.078	17448.82672
554.283	17272.64201
554.489	17679.72541
554.694	17375.9199
554.899	17418.44839
555.105	17554.14374
555.31	17714.16131
555.515	17655.4183
555.72	17645.29047
555.925	17359.71893
556.131	17667.57179
556.336	17554.14374
556.541	17639.21382
556.746	17799.24239
556.951	18076.81115
557.156	17501.48416
557.361	17762.77834
557.567	18009.94547
557.772	18044.39094
557.977	17983.60551
558.182	17932.95342
558.387	18036.28603
558.592	18149.76
558.797	18016.024
559.002	18259.19216
559.207	17661.49503
559.412	18113.28499
559.617	18062.62719
559.822	18226.7667
560.027	18210.55432
560.232	18208.52779
560.437	18058.57466
560.642	18388.90358
560.847	17955.24007
561.051	18581.47263
561.256	18358.50109
561.461	18526.73895
561.666	18504.44086
561.871	18222.71358
562.076	18469.98107
562.281	18480.11619
562.485	18500.38671
562.69	18561.20057
562.895	18218.66048
563.1	18624.04522
563.305	18447.68415
563.509	19110.71313
563.714	18656.48264
563.919	18709.19558
564.123	18514.5763
564.328	18581.47263
564.533	18486.1973
564.737	18190.28918
564.942	18611.88145
565.147	18859.23932
565.351	18901.82327
565.556	18638.23647
565.761	18877.48936
565.965	18619.99062
566.17	18642.29115
566.374	19167.50618
566.579	19037.6982
566.784	19070.14863
566.988	19143.16591
567.193	19139.10925
567.397	18757.85603
567.602	19502.24495
567.806	18920.07407
568.011	19293.27363
568.215	19528.6231
568.42	19285.15912
568.624	19378.47993
568.828	19339.93332
569.033	19100.57186
569.237	19534.71047
569.442	19615.87893
569.646	19425.14361
569.85	19674.73024
570.055	19757.93983
570.259	19820.85908
570.463	19786.35447
570.668	19479.92552
570.872	19626.02545
571.076	19780.26555
571.281	20062.42529
571.485	19727.49648
571.689	19971.06972
571.893	19557.03113
572.098	19979.18987
572.302	19918.29039
572.506	20131.45515
572.71	19690.96571
572.914	20318.2662
573.119	19891.90178
573.323	20117.24272
573.527	20259.37627
573.731	20320.29695
573.935	20346.69709
574.139	20513.23735
574.343	19942.64973
574.547	20098.96991
574.751	20210.64245
574.955	20165.9719
575.159	20147.69818
575.364	20700.12088
575.568	20462.4599
575.772	20521.36199
575.976	20460.42885
576.18	20348.7279
576.383	20170.03278
576.587	20590.42409
576.791	20501.05053
576.995	20746.84726
577.199	20872.81628
577.403	20318.2662
577.607	20848.43393
577.811	20966.28741
578.015	20694.02629
578.219	20972.38366
578.422	20549.79874
578.626	20862.65689
578.83	20962.22327
579.034	21122.76941
579.238	21175.61295
579.442	21297.57005
579.645	21043.50926
579.849	21002.86545
580.053	20952.06298
580.257	21197.97066
580.46	20980.51205
580.664	21472.40048
580.868	21136.99625
581.071	21218.29628
581.275	21366.68552
581.479	21382.94865
581.682	21031.31595
581.886	21173.58046
582.09	21309.76656
582.293	21508.99663
582.497	21917.74006
582.7	21683.86259
582.904	21694.0301
583.107	21598.4593
583.311	21403.27793
583.515	21563.89327
583.718	21938.07964
583.922	22200.49415
584.125	21917.74006
584.329	21799.77807
584.532	22153.70249
584.735	21970.62376
584.939	21441.90467
585.142	21744.86916
585.346	21704.19772
585.549	22060.1251
585.753	21779.44111
585.956	22013.33939
586.159	22102.84423
586.363	22536.23039
586.566	22273.73721
586.769	22499.59983
586.973	22530.12522
587.176	22287.97947
587.379	22198.45969
587.582	22430.41194
587.786	22117.08431
587.989	22493.49485
588.192	22654.27004
588.395	22560.65141
588.599	22574.89724
588.802	22723.4712
589.005	22428.37706
589.208	22692.94078
589.411	22259.49513
589.615	22548.44084
589.818	22422.27246
590.021	22990.13646
590.224	22414.13304
590.427	22717.36505
590.63	22756.03785
590.833	22792.67638
591.036	22684.79947
591.239	22924.99147
591.442	22607.45979
591.645	22904.63436
591.848	22953.49198
592.051	23075.64448
592.254	22806.92501
592.457	22935.17014
592.66	23360.71289
592.863	23203.91741
593.066	23142.83344
593.269	23169.3028
593.472	23081.75242
593.675	23590.84916
593.878	23619.36436
594.081	23782.31961
594.284	23664.17514
594.486	23841.39556
594.689	23759.91213
594.892	23295.54883
595.095	23924.9209
595.298	23849.54416
595.5	24106.24847
595.703	24047.16176
595.906	23835.28414
596.109	23631.58533
596.311	23774.17139
596.514	23841.39556
596.717	23598.9963
596.92	23926.95817
597.122	23808.80163
597.325	23684.54416
597.528	23965.66672
597.73	24016.60059
597.933	23878.06462
598.136	24267.22053
598.338	23731.39404
598.541	24114.39854
598.743	24028.82499
598.946	23827.13562
599.148	23994.18947
599.351	24346.69394
599.554	24008.45106
599.756	24110.3235
599.959	24401.71635
600.161	24481.19651
600.363	24059.38641
600.566	24055.31151
600.768	24204.05225
600.971	24430.24724
601.173	24199.97697
601.376	24874.57751
601.578	24587.17611
601.78	24568.83299
601.983	24289.6357
602.185	24750.23481
602.388	24528.07125
602.59	24894.9624
602.792	24670.74173
602.995	24554.56627
603.197	24352.80745
603.399	24570.87111
603.601	24491.38656
603.804	24872.53903
604.006	24685.00944
604.208	24758.38816
604.41	25009.12208
604.613	24923.50164
604.815	24797.11708
605.017	25212.99632
605.219	24966.31135
605.421	24727.81331
605.623	24381.33746
605.826	24817.50107
606.028	24405.79216
606.23	24495.46259
606.432	24560.68057
606.634	25208.91862
606.836	24811.38585
607.038	25398.54083
607.24	24978.54288
607.442	25068.24331
607.644	25080.47552
607.846	25076.39811
608.048	25035.62446
608.25	25064.16592
608.452	24988.73589
608.654	25465.8305
608.856	24962.23419
609.058	25139.59903
609.26	25414.85327
609.462	25190.56907
609.664	25498.45659
609.866	25202.80209
610.067	25241.54048
610.269	25162.02568
610.471	25119.2114
610.673	25388.34562
610.875	25423.00954
611.077	25465.8305
611.278	25272.12397
611.48	25017.27662
611.682	25378.15046
611.884	25712.57809
612.085	25380.18949
612.287	25577.98488
612.489	25139.59903
612.69	25431.16584
612.892	25482.14348
613.094	25488.26088
613.295	25533.12239
613.497	25115.13391
613.699	25135.52149
613.9	25166.10328
614.102	25323.09753
614.304	25337.37037
614.505	25021.3539
614.707	25423.00954
614.908	25027.46984
615.11	25592.25951
615.311	24998.92896
615.513	25276.20181
615.714	25327.17547
615.916	25331.25342
616.117	25522.92651
616.319	25372.0334
616.52	25215.03518
616.722	25319.0196
616.923	25276.20181
617.124	25106.97893
617.326	24952.04133
617.527	25219.11289
617.729	25310.86376
617.93	25747.24741
618.131	25418.9314
618.333	25459.71316
618.534	25961.39349
618.735	25732.97174
618.937	25622.84833
619.138	25616.73053
619.339	25518.84817
619.54	25924.68129
619.742	25606.53424
619.943	25557.59272
620.144	25628.96615
620.345	25816.5877
620.546	25775.79903
620.748	25981.78942
620.949	26093.9702
621.15	26098.0496
621.351	25641.20184
621.552	25700.34199
621.753	25345.52632
621.954	25502.53489
622.155	25341.44834
622.356	26469.30356
622.558	26132.7248
622.759	25924.68129
622.96	25639.16255
623.161	25810.46935
623.362	25616.73053
623.563	25943.03732
623.764	25677.90933
623.965	25863.4956
624.166	25971.59143
624.366	25836.98231
624.567	26281.62981
624.768	25883.89064
624.969	25855.33763
625.17	25718.69616
625.371	25598.37724
625.572	26006.26477
625.773	25849.21918
625.973	26077.65266
626.174	26061.33524
626.375	25763.56257
626.576	26091.9305
626.777	26049.09724
626.977	26016.4629
627.178	26304.06833
627.379	25885.93016
627.58	26071.53361
627.78	26130.68506
627.981	26334.66664
628.182	26408.10409
628.382	25726.85362
628.583	26206.15627
628.784	26049.09724
628.984	25535.16158
629.185	26100.0893
629.386	25910.40448
629.586	26442.78361
629.787	26318.3475
629.987	26499.90384
630.188	26177.59932
630.388	26183.71864
630.589	25800.27214
630.79	26153.1222
630.99	25885.93016
631.191	25985.86863
631.391	26385.66465
631.591	26459.10355
631.792	25812.5088
631.992	26281.62981
632.193	26730.43715
632.393	26167.40049
632.594	26601.90731
632.794	26314.26773
632.994	26061.33524
633.195	26293.86898
633.395	26128.64533
633.595	26361.18548
633.796	26865.0938
633.996	26489.70371
634.196	26353.02581
634.397	26481.54363
634.597	26326.50706
634.797	26608.02764
634.997	26475.42359
635.198	26707.995
635.398	26577.42612
635.598	27065.05005
635.798	27114.02096
635.998	26899.77912
636.199	26777.36223
636.399	26438.70365
636.599	26699.83426
636.799	26889.57751
636.999	26340.78635
637.199	26605.98753
637.399	26750.83926
637.599	27044.64573
637.799	26744.71861
637.999	26963.02987
638.199	26879.37594
638.399	27073.21181
638.599	27199.72193
638.799	26930.38415
638.999	26950.78768
639.199	27258.89778
639.399	27069.13093
639.599	26889.57751
639.799	26642.70978
639.999	27011.99912
640.199	26665.1514
640.399	26585.58649
640.599	25961.39349
640.799	27483.36781
640.998	26689.63338
641.198	27065.05005
641.398	26993.63556
641.598	27395.6186
641.798	27373.1715
641.997	27046.68616
642.197	26861.0132
642.397	26875.29532
642.597	26963.02987
642.796	26965.07024
642.996	26630.46898
643.196	26918.1421
643.395	26548.86502
643.595	26999.75673
643.795	27097.69724
643.994	27324.19655
644.194	26789.60368
644.394	27338.48084
644.593	26909.98076
644.793	27277.26293
644.992	27195.64088
645.192	27156.87115
645.392	27193.60035
645.591	27175.2357
645.791	26977.31248
645.99	27342.56207
646.19	27265.01948
646.389	27058.92874
646.589	27187.47879
646.788	27426.22853
646.987	27152.79015
647.187	27689.48544
647.386	27481.32711
647.586	27579.28239
647.785	27773.16046
647.984	27562.95631
648.184	27516.01928
648.383	27677.24048
648.582	26901.81944
648.782	27526.22292
648.981	27318.07474
649.18	27362.96833
649.38	27707.85296
649.579	27971.13115
649.778	27816.01917
649.977	27911.9429
650.177	27316.03413
650.376	27338.48084
650.575	27546.63031
650.774	27448.67599
650.973	27673.15884
651.173	27509.8971
651.372	27607.85321
651.571	27616.01634
651.77	28099.7158
651.969	27746.62914
652.168	27479.2864
652.367	27862.96025
652.566	27405.82188
652.765	28067.05896
652.964	27764.99696
653.163	27522.14146
653.362	27540.50808
653.561	27267.06005
653.76	27620.09792
653.959	27756.83347
654.158	27681.32213
654.357	27958.88522
654.556	27371.13086
654.755	27828.26461
654.954	27713.97548
655.153	27826.2237
655.352	27805.81467
655.551	27916.02481
655.749	28013.9922
655.948	27930.31156
656.147	28242.59282
656.346	27877.24679
656.545	27997.66412
656.743	28299.74513
656.942	27834.38734
657.141	27981.33611
657.34	27709.8938
657.538	28297.70396
657.737	28083.38734
657.936	28412.01106
658.135	28383.43397
658.333	28103.79792
658.532	28469.16588
658.731	28250.75738
658.929	28507.94998
659.128	27920.10674
659.326	27995.62312
659.525	27952.76228
659.724	27989.50011
659.922	27850.71469
660.121	28052.77168
660.319	27922.1477
660.518	27577.24162
660.716	28091.55156
660.915	28122.16754
661.113	28293.62162
661.312	28095.63368
661.51	28160.94814
661.709	27769.07871
661.907	28387.5164
662.105	28069.1
662.304	28142.57833
662.502	28199.72914
662.701	28085.42839
662.899	27669.0772
663.097	28387.5164
663.296	28032.36138
663.494	28748.82818
663.692	28628.38725
663.891	28454.8771
664.089	28140.53725
664.287	28375.26913
664.485	28142.57833
664.684	28673.297
664.882	28342.60992
665.08	28187.48247
665.278	28252.79852
665.476	28622.26323
665.675	28322.19805
665.873	28218.09923
666.071	28107.88005
666.269	28252.79852
666.467	28038.48445
666.665	28467.12462
666.863	27613.97556
667.061	28324.23923
667.259	27828.26461
667.457	28326.28042
667.655	27754.7926
667.853	27781.32399
668.051	27960.92621
668.249	28311.99216
668.447	28073.18209
668.645	27738.4657
668.843	27869.08304
669.041	27760.91521
669.239	27413.98452
669.437	27679.28131
669.635	27826.2237
669.833	27420.10652
670.031	27552.75255
670.229	27828.26461
670.426	28316.07451
670.624	27918.06578
670.822	27899.69717
671.02	27740.50656
671.218	27550.7118
671.415	27773.16046
671.613	27216.04619
671.811	27795.6102
672.009	28303.82747
672.206	27871.12398
672.404	28101.75686
672.602	27871.12398
672.799	28265.04541
672.997	28083.38734
673.195	28042.56651
673.392	28267.08656
673.59	28060.93583
673.788	27881.32866
673.985	27695.60793
674.183	27509.8971
674.38	27889.49243
674.578	27575.20086
674.775	27791.52842
674.973	27732.34313
675.17	28124.20862
675.368	27807.85557
675.565	27699.6896
675.763	27971.13115
675.96	27664.99557
676.158	27691.52627
676.355	27448.67599
676.553	28065.01791
676.75	27616.01634
676.947	28001.74613
677.145	27693.5671
677.342	27962.96719
677.539	27505.81566
677.737	27871.12398
677.934	27640.50587
678.131	28046.64858
678.329	27783.36487
678.526	28011.95119
678.723	27844.59193
678.92	27944.59836
679.118	27550.7118
679.315	27613.97556
679.512	27887.45149
679.709	27848.67377
679.906	27526.22292
680.104	27642.54667
680.301	27718.05717
680.498	26783.48295
680.695	27020.16074
680.892	27567.03782
681.089	27567.03782
681.286	27136.46622
681.483	26520.30422
681.68	26938.54554
681.877	27020.16074
682.075	27089.53541
682.272	26928.3438
682.469	27399.69991
682.665	27105.85909
682.862	27032.40321
683.059	26934.46484
683.256	27360.92769
683.453	27446.6353
683.65	27391.5373
683.847	27126.26381
684.044	27067.09049
684.241	26650.87035
684.438	27469.0829
684.635	26932.42449
684.831	27048.72659
685.028	27197.6814
685.225	27250.73553
685.422	27365.00896
685.619	27193.60035
685.815	26979.35286
686.012	27120.14238
686.209	26950.78768
686.405	27034.44363
686.602	26879.37594
686.799	26948.74732
686.996	27211.96512
687.192	27536.4266
687.389	27326.23716
687.586	27369.09023
687.782	26979.35286
687.979	26956.90877
688.175	26616.18811
688.372	27122.18285
688.568	26636.58937
688.765	26383.62471
688.962	26457.06355
689.158	26812.04648
689.355	26455.02356
689.551	26444.8236
689.748	26650.87035
689.944	26520.30422
690.14	26803.88544
690.337	26550.90509
690.533	26793.68418
690.73	26779.40247
690.926	26973.23173
691.123	26324.46717
691.319	26795.72443
691.515	26838.57002
691.712	26212.27566
691.908	26583.5464
692.104	26149.04271
692.301	26459.10355
692.497	26159.24146
692.693	26253.07199
692.889	26302.02846
693.086	26571.30586
693.282	26424.42381
693.478	26756.95992
693.674	26461.14355
693.87	26330.58685
694.067	26175.55955
694.263	26330.58685
694.459	25783.9567
694.655	26316.30761
694.851	26200.0369
695.047	25932.83951
695.243	26395.86437
695.439	26350.98589
695.635	26128.64533
695.831	25989.94784
696.027	26110.28785
696.224	25955.27475
696.42	25879.81162
696.615	26173.51979
696.811	26104.16871
697.007	26020.54217
697.203	25759.48377
697.399	26020.54217
697.595	26224.51449
697.791	26299.98859
697.987	25871.65359
698.183	26365.26532
698.379	25877.77211
698.575	25979.74982
698.77	25716.6568
698.966	25739.08987
699.162	26114.36728
699.358	26134.76453
699.554	26151.08246
699.749	26314.26773
699.945	25924.68129
700.141	26006.26477
700.337	26096.0099
700.532	26210.23586
700.728	26004.22514
700.924	26450.94357
701.119	25877.77211
701.315	25679.94865
701.511	25007.08345
701.706	25822.70606
701.902	25347.56531
702.097	25932.83951
702.293	25892.04871
702.489	25484.18261
702.684	25822.70606
702.88	25561.67114
703.075	25651.3983
703.271	25455.63495
703.466	25471.94785
703.662	25606.53424
703.857	25304.7469
704.053	25675.87001
704.248	25673.83069
704.443	26020.54217
704.639	25785.99612
704.834	25943.03732
705.03	25531.08321
705.225	25237.46272
705.42	25308.8248
705.616	25510.69152
705.811	25321.05856
706.006	25527.00486
706.202	25516.809
706.397	25520.88734
706.592	25459.71316
706.787	25653.4376
706.983	25398.54083
707.178	25624.8876
707.373	25529.04403
707.568	25431.16584
707.763	24952.04133
707.959	25210.95747
708.154	24825.65473
708.349	24890.8854
708.544	25392.4237
708.739	25423.00954
708.934	25092.70782
709.129	24774.69497
709.324	24752.27315
709.519	25131.44396
709.714	24854.19285
709.909	24923.50164
710.104	24440.43696
710.299	24966.31135
710.494	25270.08506
710.689	25382.22852
710.884	24856.23131
711.079	25820.66661
711.274	25217.07403
711.469	25427.08768
711.664	25011.16071
711.859	24768.5799
712.054	24927.57871
712.249	24813.42425
712.443	24943.88709
712.638	24827.69316
712.833	24238.6926
713.028	24605.51942
713.223	24442.47492
713.417	25045.81779
713.612	24650.35948
713.807	25153.87051
714.002	25039.70179
714.196	25445.43945
714.391	25013.19934
714.586	25212.99632
714.78	24950.00277
714.975	25170.18089
715.17	24923.50164
715.364	25261.92942
715.559	24978.54288
715.754	24915.34752
715.948	24687.0477
716.143	24462.85459
716.337	24140.88659
716.532	24815.46266
716.726	25123.28891
716.921	25445.43945
717.115	24807.30905
717.31	24727.81331
717.504	24693.16248
717.699	24733.92824
717.893	24464.89257
718.088	24609.59574
718.282	24556.60437
718.476	24446.55083
718.671	24434.32312
718.865	24646.28306
719.059	24136.81147
719.254	24124.5862
719.448	23863.80432
719.642	23729.35706
719.837	23668.24892
720.031	24055.31151
720.225	23935.10725
720.419	24430.24724
720.614	23908.62289
720.808	24073.64862
721.002	23576.59179
721.196	23943.25638
721.39	24252.9565
721.585	24336.50482
721.779	23963.6294
721.973	24528.07125
722.167	23967.70404
722.361	23994.18947
722.555	23996.22683
722.749	23910.66013
722.943	23330.16683
723.137	23427.91672
723.331	23100.07641
723.525	23690.65493
723.719	23945.29367
723.913	24171.45029
724.107	23303.69416
724.301	23588.81239
724.495	23399.40559
724.689	23322.02134
724.883	23010.49498
725.077	23006.42325
725.271	23389.22319
725.465	23519.56379
725.659	23643.80642
725.853	24100.13594
726.046	23425.88019
726.24	23273.14944
726.434	23195.77271
726.628	23515.49046
726.822	23273.14944
727.015	23468.64798
727.209	23309.80319
727.403	23305.7305
727.596	23548.07749
727.79	23460.50163
727.984	23700.83959
728.177	23594.92272
728.371	23454.3919
728.565	23452.35533
728.758	23476.79438
728.952	23399.40559
729.146	23332.20322
729.339	23454.3919
729.533	23434.02633
729.726	24020.67538
729.92	23808.80163
730.113	23900.47396
730.307	23721.20915
730.5	23307.76684
730.694	23922.88364
730.887	23275.18573
731.081	24100.13594
731.274	23523.63714
731.468	22837.45833
731.661	22937.20589
731.854	22988.10063
732.048	23034.92564
732.241	23212.06216
732.435	23450.31876
732.628	23572.51828
732.821	23598.9963
733.014	23594.92272
733.208	23971.77869
733.401	23513.45379
733.594	23374.96797
733.788	22969.77828
733.981	23584.73884
734.174	23295.54883
734.367	23197.80888
734.56	23596.95951
734.754	23957.51747
734.947	23383.11379
735.14	23527.7105
735.333	23236.49672
735.526	23354.60362
735.719	22918.8843
735.912	22597.2839
736.105	22532.16027
736.298	22562.68652
736.491	22648.16425
736.684	22713.29431
736.877	22637.988
737.07	22800.81843
737.263	22817.1027
737.456	23012.53085
737.649	22465.00536
737.842	22625.77662
738.035	22631.8823
738.228	22546.40575
738.421	22939.24164
738.614	23028.81793
738.807	22959.59932
739	22668.51701
739.192	22497.56483
739.385	22737.719
739.578	22863.92117
739.771	22505.70484
739.964	22351.0545
740.156	22800.81843
740.349	22680.72883
740.542	22644.09374
740.735	22570.82699
740.927	22727.54198
741.12	22583.03779
741.313	22808.96054
741.505	22540.30053
741.698	22363.26298
741.891	22342.91559
742.083	22375.47158
742.276	22664.44643
742.468	22326.63794
742.661	22332.74203
742.854	22243.21868
743.046	22119.11862
743.239	22294.08335
743.431	22878.17064
743.624	22462.97043
743.816	22336.81144
744.009	22605.4246
744.201	22375.47158
744.393	22178.11528
744.586	22379.54115
744.778	22322.56857
744.971	22212.70099
745.163	22308.32587
745.355	22395.81955
745.548	22426.34219
745.74	22094.70712
745.932	22001.13476
746.125	22167.94322
746.317	22125.22157
746.509	21846.55455
746.702	22342.91559
746.894	21885.19753
747.086	21964.52166
747.278	22239.14961
747.471	22092.67286
747.663	22375.47158
747.855	22373.43681
748.047	22271.70261
748.239	22178.11528
748.431	22096.74139
748.623	22056.0567
748.815	22043.85159
749.008	22342.91559
749.2	22218.80446
749.392	22422.27246
749.584	21978.75994
749.776	22003.16885
749.968	22253.39143
750.16	22029.61246
750.352	22086.57008
750.544	22058.0909
750.736	22064.19352
750.928	21905.5365
751.12	21732.66757
751.311	21496.79777
751.503	21702.16419
751.695	22011.30528
751.887	22127.2559
752.079	22469.07525
752.271	22045.88576
752.463	21799.77807
752.654	21720.46611
752.846	21618.79278
753.038	21279.27556
753.23	21291.47185
753.421	21303.66828
753.613	21342.29129
753.805	21714.36543
753.997	21279.27556
754.188	21177.64545
754.38	21076.02549
754.572	21523.22882
754.763	21254.88341
754.955	20767.16377
755.146	21633.02646
755.338	21427.6736
755.53	21179.67795
755.721	21059.76725
755.913	21565.92653
756.104	21405.31088
756.296	21145.12596
756.487	21293.50458
756.679	21191.87306
756.87	21352.45548
757.062	21124.8018
757.253	21124.8018
757.445	21071.96091
757.636	21047.57373
757.827	20913.45483
758.019	20858.59317
758.21	20838.2748
758.401	20978.47994
758.593	20872.81628
758.784	20643.23955
758.975	20637.14531
759.167	20543.70508
759.358	20608.70605
759.549	20304.05107
759.74	20019.79163
759.932	20496.98828
760.123	20275.62141
760.314	20123.33374
760.505	20210.64245
760.696	20472.61518
760.888	20694.02629
761.079	20895.16728
761.27	20789.5124
761.461	20507.14392
761.652	20362.94368
761.843	20687.93174
762.034	20163.94147
762.225	20206.5814
762.416	20442.14965
762.607	20141.60701
762.798	20198.45937
762.989	20440.11865
763.18	20003.55073
763.371	20046.18368
763.562	20218.76458
763.753	20036.03281
763.944	20038.06298
764.135	19804.62147
764.326	20015.73138
764.517	19897.9914
764.708	19887.84206
764.899	19759.96942
765.089	19692.99516
765.28	19597.61544
765.471	19715.3194
765.662	19697.05407
765.853	19806.65115
766.043	19264.87314
766.234	19595.58619
766.425	19122.8828
766.615	19644.28947
766.806	19761.99901
766.997	19717.34891
767.187	19759.96942
767.378	19865.51389
767.569	19569.20625
767.759	19853.3351
767.95	19759.96942
768.141	19528.6231
768.331	19439.34604
768.522	19256.75887
768.712	19498.18683
768.903	19469.7805
769.093	19226.33092
769.284	19199.96078
769.474	18960.63258
769.665	18861.26708
769.855	18993.08055
770.046	19240.53052
770.236	18995.10859
770.426	18814.62945
770.617	18895.73974
770.807	18782.18711
770.998	19193.87546
771.188	18751.77335
771.378	18577.41819
771.569	18940.35313
771.759	18601.74508
771.949	18425.3877
772.139	18563.22776
772.33	18559.17338
772.52	18611.88145
772.71	18932.24146
772.9	18654.45527
773.09	18486.1973
773.281	18741.63563
773.471	18474.03511
773.661	18427.41463
773.851	18441.60326
774.041	18236.89955
774.231	18553.09185
774.421	18463.90005
774.611	18332.15295
774.802	18109.23228
774.992	18397.01106
775.182	18261.21879
775.372	18478.08916
775.562	18469.98107
775.752	18405.11859
775.942	18220.68703
776.131	18084.91634
776.321	18078.83744
776.511	18218.66048
776.701	18072.75857
776.891	18070.73229
777.081	17677.6998
777.271	18212.58086
777.461	17855.96644
777.651	17983.60551
777.84	17764.80409
778.03	17489.33225
778.22	17527.81368
778.41	17568.32169
778.599	17394.14623
778.789	17815.44898
778.979	17896.48528
779.169	17629.08613
779.358	17829.62994
779.548	18135.57513
779.738	17669.59739
779.927	17847.86284
780.117	17807.34566
780.307	17539.96595
780.496	17604.78
780.686	17373.89477
780.875	17331.36769
781.065	17363.76915
781.254	17264.54211
781.444	17428.57442
781.633	17309.09214
781.823	17471.10461
782.012	17205.81926
782.202	17375.9199
782.391	17230.11807
782.581	16966.9026
782.77	17039.78835
782.96	16999.29584
783.149	16938.55907
783.338	16841.38512
783.528	16632.88522
783.717	16912.24054
783.906	16760.41127
784.096	16614.66797
784.285	16975.00084
784.474	16962.85349
784.663	16857.58037
784.853	16647.05433
785.042	16857.58037
785.231	16851.50714
785.42	16703.73188
785.61	16675.39288
785.799	16655.15101
785.988	17068.13376
786.177	16651.10267
786.366	16865.67806
786.555	16574.18582
786.744	16226.0734
786.933	16307.02469
787.122	16317.1438
787.312	16383.93114
787.501	16462.86438
787.69	16302.97705
787.879	16181.55138
788.068	15940.74096
788.257	15932.64684
788.445	15797.07335
788.634	16315.11998
788.823	16039.89565
789.012	16017.63614
789.201	15950.85863
789.39	16090.4861
789.579	15823.37824
789.768	15991.32967
789.957	15973.11764
790.145	16120.84084
790.334	16217.97842
790.523	16141.07752
790.712	16234.1684
790.9	16009.54181
791.089	15554.26676
791.278	16005.49466
791.467	15663.52814
791.655	15904.3176
791.844	15635.20089
792.033	15845.63638
792.221	15258.86492
792.41	15600.80374
792.599	15418.70446
792.787	15519.8701
792.976	15331.70295
793.164	15495.59022
793.353	15647.34112
793.541	15610.92052
793.73	15368.1221
793.918	15188.05039
794.107	14898.72127
794.295	15117.23592
794.484	15127.35227
794.672	15036.30494
794.861	15447.03071
795.049	15218.39946
795.238	14943.23383
795.426	15016.07215
795.614	14918.95428
795.803	14831.95195
795.991	14912.88438
796.179	15194.1202
796.368	15250.77183
796.556	15066.65409
796.744	14953.35029
796.932	15212.32965
797.121	14825.88198
797.309	15208.2831
797.497	14767.20527
797.685	14955.37359
797.874	14801.60203
798.062	15149.60825
798.25	14680.20065
798.438	15188.05039
798.626	14910.86108
798.814	15068.67737
799.002	14882.53482
799.19	14797.55537
799.378	14698.41106
799.566	14757.08854
799.755	14668.06034
799.943	14746.97178
800.131	14617.47531
800.318	14825.88198
800.506	14627.59237
800.694	14767.20527
800.882	14670.08373
801.07	15048.44461
801.258	14639.7328
801.446	15248.74855
801.634	14653.8966
801.822	15005.95574
802.01	14797.55537
802.197	14850.16183
802.385	14718.64475
802.573	14949.30371
802.761	14777.32199
802.949	14633.66259
803.136	14639.7328
803.324	14647.82641
803.512	14666.03695
803.699	14908.83778
803.887	14655.91999
804.075	14983.69962
804.262	14469.76292
804.45	14916.93098
804.638	15032.25839
804.825	15092.95665
805.013	14997.86261
805.201	15123.30573
805.388	14641.75621
805.576	14623.54555
805.763	14744.94843
805.951	14496.06836
806.138	14299.78314
806.326	14574.98337
806.513	14380.72729
806.701	14579.03025
806.888	14210.74128
807.075	14548.67858
807.263	14216.81243
807.45	14601.28797
807.638	14512.25621
807.825	14635.686
808.012	14562.84272
808.2	14607.35823
808.387	14651.8732
808.574	14670.08373
808.761	14560.81928
808.949	14315.97218
809.136	14449.5278
809.323	14305.85404
809.51	14599.26454
809.698	14574.98337
809.885	14334.18473
810.072	14643.77961
810.259	14572.95993
810.446	14746.97178
810.633	14655.91999
810.82	14740.90172
811.008	14684.24741
811.195	14846.11519
811.382	14518.32664
811.569	14520.35011
811.756	14688.29417
811.943	14983.69962
812.13	14912.88438
812.317	14619.49873
812.504	14570.93649
812.691	14896.69797
812.878	14607.35823
813.064	14704.48117
813.251	14522.37358
813.438	14844.09187
813.625	14352.39714
813.812	14591.17084
813.999	14935.14066
814.186	14623.54555
814.372	14643.77961
814.559	14805.6487
814.746	14372.63299
814.933	14396.9158
815.12	14344.30275
815.306	13931.44698
815.493	14198.59892
815.68	14275.49935
815.866	14247.16793
816.053	14700.43443
816.24	14413.10422
816.426	14558.79583
816.613	14672.10711
816.799	14402.98647
816.986	14186.45649
817.173	14465.7159
817.359	14496.06836
817.546	14546.65513
817.732	14405.01002
817.919	14477.85692
818.105	14386.79799
818.292	14753.04184
818.478	14309.90131
818.665	14417.15131
818.851	14566.88961
819.037	14275.49935
819.224	14245.14425
819.41	14352.39714
819.597	13980.02314
819.783	14154.07631
819.969	14190.50397
820.156	13913.23053
820.342	14259.31001
820.528	14085.26662
820.714	14204.67011
820.901	14326.09028
821.087	14354.42073
821.273	14309.90131
821.459	14129.79083
821.646	14512.25621
821.832	14113.60033
822.018	14287.64128
822.204	14058.95635
822.39	13868.70051
822.576	13716.88321
822.762	13992.16695
822.948	13571.12195
823.134	13838.33837
823.32	13524.55557
823.507	13977.99916
823.693	13882.8693
823.879	13992.16695
824.065	13919.3027
824.25	13824.16915
824.436	13639.95581
824.622	13714.85887
824.808	13623.75996
824.994	14093.36201
825.18	13565.04818
825.366	14081.21891
825.552	13710.81017
825.738	14052.88469
825.923	13727.00489
826.109	13882.8693
826.295	13617.68647
826.481	13696.63961
826.667	13913.23053
826.852	14008.35856
827.038	13623.75996
827.224	13935.49505
827.409	13599.46579
827.595	13554.92516
827.781	13368.64508
827.966	13326.11998
828.152	13311.94454
828.338	13301.8191
828.523	13093.21065
828.709	13289.66844
828.894	12787.29333
829.08	12835.92401
829.266	12963.56473
829.451	12750.81819
829.637	12690.02216
829.822	13093.21065
830.008	13129.66998
830.193	12971.6682
830.378	12819.71414
830.564	13046.62148
830.749	12767.02959
830.935	13186.38149
831.12	12813.63535
831.305	13176.2547
831.491	13109.41499
831.676	13085.10837
831.861	12872.39495
832.047	12833.8978
832.232	12842.00263
832.417	12876.44717
832.602	12842.00263
832.788	12941.27976
832.973	13093.21065
833.158	13366.62011
833.343	13101.31286
833.528	13079.03161
833.714	12973.69406
833.899	13062.8267
834.084	12436.64643
834.269	12546.11679
834.454	12542.06266
834.639	12529.90014
834.824	12420.42698
835.009	12527.87303
835.194	12454.89281
835.379	12473.13865
835.564	12312.96216
835.749	12158.82713
835.934	12104.05839
836.119	12237.92795
836.304	11976.24285
836.489	11990.44612
836.674	12004.649
836.859	12041.16891
837.044	12010.73583
837.228	12110.14408
837.413	12012.76476
837.598	12035.08244
837.783	12079.71496
837.968	11945.80595
838.152	11878.83831
838.337	11953.92264
838.522	12106.08696
838.707	11955.95179
838.891	11923.4844
839.076	11923.4844
839.261	11982.33002
839.445	12207.50588
839.63	12235.89986
839.815	12209.53407
839.999	11978.27192
840.184	12225.75932
840.368	12369.73842
840.553	12290.65571
840.737	11953.92264
840.922	11781.41461
841.106	11440.27069
841.291	11740.81558
841.475	11460.58423
841.66	11639.3026
841.844	11499.17731
842.029	11665.69812
842.213	11608.84432
842.397	11793.59365
842.582	11446.36485
842.766	11369.16562
842.951	11076.48819
843.135	11421.98768
843.319	11393.54586
843.504	11356.97497
843.688	10984.98123
843.872	11204.56112
844.056	11344.78396
844.241	11285.85564
844.425	11113.08478
844.609	11267.56581
844.793	10995.14977
844.977	11314.30486
845.161	11068.35514
845.346	11332.59259
845.53	11080.55465
845.714	11131.38177
845.898	10948.37215
846.082	11009.38527
846.266	11141.54639
846.45	11342.75209
846.634	10982.94749
846.818	11204.56112
847.002	11117.15085
847.186	11194.39814
847.37	10915.82769
847.554	11261.46902
847.738	11058.18857
847.922	11291.95207
848.106	11269.59806
848.29	11115.11782
848.473	10913.79356
848.657	10653.32916
848.841	10539.31376
849.025	10392.66425
849.209	10278.55673
849.392	10535.24106
849.576	10170.52324
849.76	10571.89357
849.944	10484.32799
850.127	10632.97212
850.311	10331.5404
850.495	10563.74892
850.678	10551.53157
850.862	10641.11508
851.046	10410.9991
851.229	10567.82127
851.413	10121.5897
851.596	10398.77599
851.78	10506.73072
851.964	10675.7205
852.147	10309.12534
852.331	10349.87881
852.514	10086.92358
852.698	9893.12525
852.881	9599.11256
853.065	9654.2641
853.248	9490.81877
853.431	9793.11452
853.615	9568.46788
853.798	9664.4761
853.982	9548.03613
854.165	9568.46788
854.348	9707.36232
854.532	9676.73
854.715	9484.6876
854.898	9821.69267
855.081	9672.64543
855.265	9817.61026
855.448	9942.09715
855.631	9766.57503
855.814	9660.39135
855.997	9713.48836
856.181	9580.72617
856.364	9811.48653
856.547	9529.64619
856.73	9631.79632
856.913	9417.23513
857.096	9543.94959
857.279	9345.67528
857.462	9825.77502
857.645	9243.41185
857.828	9550.07937
858.011	9490.81877
858.194	9372.25699
858.377	9163.61725
858.56	9306.82007
858.743	9130.87353
858.926	9229.09163
859.109	9036.71079
859.292	9239.32044
859.475	9149.29241
859.658	9623.62576
859.841	9016.23576
860.023	9394.74705
860.206	9018.28334
860.389	8991.66342
860.572	8733.49903
860.755	9061.27851
860.937	8774.49664
861.12	8926.12478
861.303	8833.93024
861.486	9165.66359
861.668	8891.29999
861.851	8667.88757
862.034	8530.45185
862.216	8485.30526
862.399	8479.14819
862.581	8520.19207
862.764	8511.9839
862.947	8860.56795
863.129	8706.84665
863.312	8671.98884
863.494	8569.43472
863.677	8663.78622
863.859	8583.79511
864.042	8530.45185
864.224	8415.51508
864.406	8509.93181
864.589	8053.88742
864.771	8503.77543
864.954	8109.40435
865.136	8323.11145
865.318	8082.67581
865.501	8171.07265
865.683	8107.34843
865.865	8626.87078
866.048	8206.01006
866.23	8218.33954
866.412	8109.40435
866.594	8206.01006
866.777	8253.26919
866.959	8271.75905
867.141	8031.2652
867.323	8043.6049
867.505	8166.96199
867.687	8125.85099
867.869	8043.6049
868.052	8047.71797
868.234	7938.69408
868.416	8306.68001
868.598	7996.29874
868.78	8004.52667
868.962	8066.22579
869.144	8132.01815
869.326	7677.21217
869.508	7975.72748
869.69	7817.26002
869.872	8105.29249
870.054	7928.40584
870.236	8039.49174
870.417	7874.89871
870.599	7856.37376
870.781	7741.06955
870.963	8066.22579
871.145	8031.2652
871.327	7876.95694
871.508	7652.48773
871.69	7833.72988
871.872	7598.90763
872.054	7936.63647
872.235	7403.01102
872.417	7825.49512
872.599	7392.69527
872.78	7675.15191
872.962	7563.8667
873.144	7450.45649
873.325	7512.32468
873.507	7916.05928
873.689	7466.95657
873.87	7668.97103
874.052	7619.51706
874.233	7497.8905
874.415	7281.25035
874.596	7685.45297
874.778	7192.46135
874.959	7442.20593
875.141	7365.87176
875.322	7598.90763
875.503	7322.53369
875.685	7497.8905
875.866	7563.8667
876.048	7586.54095
876.229	7520.5723
876.41	7734.89069
876.592	7613.33446
876.773	7689.57324
876.954	7339.04457
877.136	7380.31565
877.317	7359.6812
877.498	7415.38921
877.679	7190.396
877.86	7396.82164
878.042	7388.56882
878.223	7673.09164
878.404	7631.8817
878.585	7436.01778
878.766	7429.82943
878.947	7458.7067
879.128	7308.08552
879.309	7334.91698
879.49	7165.6101
879.672	7578.29607
879.853	7190.396
880.034	7409.20021
880.215	7334.91698
880.396	7462.83168
880.576	7504.07671
880.757	7448.39388
880.938	7417.45216
881.119	7673.09164
881.3	7438.08052
881.481	7782.25714
881.662	7594.78549
881.843	7819.31883
882.023	7809.02459
882.204	7549.43629
882.385	7334.91698
882.566	7322.53369
882.747	7275.0571
882.927	7693.69343
883.108	7450.45649
883.289	7380.31565
883.469	7433.95502
883.65	7537.06652
883.831	7611.27355
884.011	7668.97103
884.192	7638.06373
884.373	7720.47261
884.553	7318.40575
884.734	7512.32468
884.914	7359.6812
885.095	7739.00995
885.275	7574.1735
885.456	7975.72748
885.636	7631.8817
885.817	7963.38375
885.997	7522.63415
886.178	7827.55384
886.358	7592.72439
886.538	7677.21217
886.719	7662.78995
886.899	7899.59604
887.08	7769.90174
887.26	7854.31533
887.44	7421.57801
887.621	7681.33261
887.801	7349.36316
887.981	7631.8817
888.161	7526.7578
888.342	7687.51311
888.522	7427.76661
888.702	7563.8667
888.882	7452.51907
889.062	7769.90174
889.242	7553.55937
889.423	7681.33261
889.603	7458.7067
889.783	7765.78311
889.963	7458.7067
890.143	7685.45297
890.323	7398.88479
890.503	7673.09164
890.683	7555.62088
890.863	8010.6974
891.043	7642.18498
891.223	8090.90034
891.403	7570.05084
891.583	7638.06373
891.763	7297.76474
891.943	7448.39388
892.122	7413.32623
892.302	7303.95728
892.482	7351.42681
892.662	7355.55405
892.842	7198.65725
893.022	7068.50116
893.201	7091.2332
893.381	7227.56886
893.561	7339.04457
893.741	7728.71164
893.92	7149.0844
894.1	7244.08783
894.28	7035.43153
894.459	7332.85316
894.639	7124.29317
894.819	7132.55727
894.998	7182.13439
895.178	7359.6812
895.357	7186.26524
895.537	7206.91815
895.716	7171.80688
895.896	7458.7067
896.075	6884.47822
896.255	7254.41147
896.434	6793.43435
896.614	7301.89312
896.793	6952.73229
896.973	6965.13947
897.152	6776.87618
897.331	7124.29317
897.511	6985.81631
897.69	7227.56886
897.87	6727.19288
898.049	6604.99859
898.228	6766.52658
898.407	6789.29494
898.587	6549.05241
898.766	7043.69947
898.945	6472.35802
899.124	6687.85091
899.304	6428.81463
899.483	6549.05241
899.662	6397.70593
899.841	6575.99156
900.02	6073.86362
900.199	6501.38125
900.378	6310.57366
900.557	6204.71475
900.737	6088.40724
900.916	6374.88955
901.095	6320.94871
901.274	6221.3241
901.453	5911.72806
901.632	6055.16298
901.811	6125.79983
901.989	6078.01906
902.168	5807.71955
902.347	6173.56818
902.526	5828.52597
902.705	5963.7102
902.884	5880.5317
903.063	5938.76061
903.242	5855.57079
903.42	6115.41377
903.599	5903.40955
903.778	5761.93711
903.957	5797.31545
904.135	5628.6869
904.314	5338.95163
904.493	5874.29179
904.672	5274.27253
904.85	5297.22575
905.029	5232.53214
905.207	5343.12371
905.386	5192.87013
905.565	5464.07297
905.743	5255.49051
905.922	5386.92481
906.1	5000.70376
906.279	5090.54508
906.457	4820.89341
906.636	5330.60721
906.814	4743.4812
906.993	4793.69807
907.171	4772.77596
907.35	5023.69049
907.528	4628.3518
907.707	4724.6465
907.885	4680.69178
908.063	4753.94412
908.242	4722.55365
908.42	4739.29587
908.598	4425.14097
908.777	4871.09009
908.955	4862.72489
909.133	4758.12913
909.311	4452.38747
909.49	4647.19581
909.668	4320.31243
909.846	4795.79015
910.024	4515.24981
910.202	4651.38312
910.38	4414.66057
910.559	4937.99849
910.737	4511.05961
910.915	4716.27494
911.093	4691.1581
911.271	4686.97164
911.449	4630.44567
911.627	4695.34446
911.805	4274.17075
911.983	4678.59845
912.161	4309.8266
912.339	4810.43412
912.517	4477.53478
912.695	4795.79015
912.872	4864.81622
913.05	5082.18955
913.228	4758.12913
913.406	4881.54607
913.584	4883.6372
913.762	4693.25129
913.939	4613.6941
914.117	4707.90302
914.295	4590.65835
914.473	4912.91059
914.65	4833.44381
914.828	5000.70376
915.006	4797.88222
915.184	4580.18667
915.361	4446.10014
915.539	4519.43993
915.716	4303.53484
915.894	4561.33623
916.072	4255.29161
916.249	4521.53496
916.427	4207.03707
916.604	4515.24981
916.782	4118.89119
916.959	4444.00432
917.137	4502.67893
917.314	4569.71443
917.492	4211.23356
917.669	4334.99169
917.847	4144.07952
918.024	4276.26832
918.201	4150.37612
918.379	4448.19594
918.556	3879.45379
918.733	4230.11673
918.911	3948.79189
919.088	4177.65924
919.265	4009.70715
919.442	4467.05712
919.62	4028.60839
919.797	4475.43929
919.974	4118.89119
920.151	4116.79203
920.328	3940.38844
920.506	3940.38844
920.683	3978.2014
920.86	4001.30607
921.037	3664.99983
921.214	3675.51698
921.391	3641.86043
921.568	3906.77142
921.745	3709.16864
921.922	4045.40809
922.099	3725.99263
922.276	3850.03103
922.453	3690.24018
922.63	3780.66203
922.807	3568.21989
922.984	3822.70641
923.161	3595.57477
923.338	3910.97383
923.514	3511.39593
923.691	3568.21989
923.868	3564.01117
924.045	3679.7237
924.222	3513.50076
924.399	3704.96245
924.575	3372.43729
924.752	3652.37862
924.929	3283.96916
925.105	3509.29108
925.282	3286.07589
925.459	3477.71617
925.635	3252.36609
925.812	3494.55663
925.989	3267.11466
926.165	3102.72765
926.342	2988.86435
926.518	3368.22522
926.695	2940.35353
926.871	3256.58005
927.048	2830.64839
927.224	3073.21189
927.401	2744.1234
927.577	2988.86435
927.754	2549.89017
927.93	2904.49267
928.107	2955.11853
928.283	3005.73582
928.459	2746.23404
928.636	2990.97334
928.812	2908.71182
928.988	2742.01275
929.165	2830.64839
929.341	2906.60225
929.517	2554.11374
929.693	2744.1234
929.87	2473.85812
930.046	2499.20377
930.222	2355.55786
930.398	2655.46488
930.574	2448.51087
930.751	2699.797
930.927	2509.76398
931.103	2803.21613
931.279	2389.36128
931.455	2410.48708
931.631	2273.15147
931.807	2433.72425
931.983	2169.59549
932.159	2332.31652
932.335	2080.81744
932.511	2243.5662
932.687	2093.50084
932.863	2228.77291
933.039	2114.63926
933.215	2292.16962
933.391	2011.05412
933.566	2205.52543
933.742	1905.33873
933.918	2044.8797
934.094	1958.19831
934.27	2110.41163
934.445	1770.00359
934.621	2042.76566
934.797	1770.00359
934.973	1645.22719
935.148	1410.45983
935.324	1723.47812
935.5	1452.76085
935.675	1499.29195
935.851	1389.3094
936.027	1404.1147
936.202	1129.17468
936.378	1558.51289
936.553	1230.68574
936.729	1298.36382
936.904	1239.14535
937.08	1222.22617
937.255	1137.63359
937.431	1148.20733
937.606	871.22166
937.782	960.01411
937.957	807.80738
938.133	786.67111
938.308	725.38156
938.483	655.64929
938.659	562.6933
938.834	702.13611
939.009	600.71778
939.185	547.90718
939.36	558.46863
939.535	636.6336
939.71	435.97783
939.886	634.5208
940.061	503.55289
940.236	562.6933
940.411	564.80566
940.586	640.85922
940.761	372.64081
940.937	492.99327
941.112	402.19626
941.287	512.00084
941.462	419.08653
941.637	507.77683
941.812	402.19626
941.987	387.41813
942.162	351.5318
942.337	478.21043
942.512	353.64262
942.687	349.42099
942.862	239.6838
943.037	340.97794
943.212	288.21528
943.386	347.3102
943.561	267.11341
943.736	267.11341
943.911	302.98769
944.086	334.64583
944.26	205.9288
944.435	330.42451
944.61	317.76099
944.785	351.5318
944.959	421.19789
945.134	317.76099
945.309	227.02509
945.483	300.87729
945.658	199.6003
945.833	340.97794
946.007	186.94385
946.182	364.197
946.357	336.75651
946.531	353.64262
946.706	216.47669
946.88	201.70978
947.055	241.79366
947.229	305.0981
947.404	300.87729
947.578	302.98769
947.752	262.89326
947.927	298.76691
948.101	372.64081
948.276	357.86432
948.45	254.45319
948.624	326.20327
948.799	309.31899
948.973	260.78321
949.147	250.23327
949.321	351.5318
949.496	283.99475
949.67	296.65654
949.844	279.77431
950.018	378.97385
950.193	269.22351
950.367	389.52924
950.541	241.79366
950.715	334.64583
950.889	311.42946
951.063	353.64262
951.237	313.53995
951.411	376.86282
951.585	305.0981
951.759	347.3102
951.933	387.41813
952.107	338.86722
952.281	269.22351
952.455	353.64262
952.629	330.42451
952.803	334.64583
952.977	359.9752
953.151	345.19943
953.325	410.64126
953.499	427.53205
953.672	319.87153
953.846	359.9752
954.02	305.0981
954.194	241.79366
954.368	355.75346
954.541	305.0981
954.715	286.10501
954.889	381.08489
955.062	309.31899
955.236	410.64126
955.41	279.77431
955.583	484.54585
955.757	332.53516
955.93	376.86282
956.104	326.20327
956.278	332.53516
956.451	309.31899
956.625	294.5462
956.798	237.57397
956.972	262.89326
957.145	338.86722
957.319	300.87729
957.492	383.19595
957.665	334.64583
957.839	321.98209
958.012	292.43587
958.185	351.5318
958.359	300.87729
958.532	319.87153
958.705	372.64081
958.879	389.52924
959.052	364.197
959.225	265.00332
959.398	440.20081
959.572	347.3102
959.745	366.30793
959.918	326.20327
960.091	427.53205
960.264	336.75651
960.438	410.64126
960.611	296.65654
960.784	376.86282
960.957	351.5318
961.13	372.64081
961.303	378.97385
961.476	298.76691
961.649	387.41813
961.822	319.87153
961.995	254.45319
962.168	283.99475
962.341	326.20327
962.514	319.87153
962.686	326.20327
962.859	296.65654
963.032	267.11341
963.205	395.86267
963.378	326.20327
963.551	311.42946
963.723	334.64583
963.896	364.197
964.069	267.11341
964.242	300.87729
964.414	233.35436
964.587	412.75256
964.76	267.11341
964.932	315.65046
965.105	317.76099
965.278	302.98769
965.45	309.31899
965.623	311.42946
965.795	309.31899
965.968	269.22351
966.14	193.27198
966.313	324.09267
966.485	319.87153
966.658	309.31899
966.83	292.43587
967.003	326.20327
967.175	248.12334
967.348	334.64583
967.52	319.87153
967.692	421.19789
967.865	311.42946
968.037	351.5318
968.209	229.13482
968.382	237.57397
968.554	229.13482
968.726	269.22351
968.898	229.13482
969.071	271.33363
969.243	250.23327
969.415	199.6003
969.587	233.35436
969.759	252.34322
969.932	182.72519
970.104	279.77431
970.276	186.94385
970.448	260.78321
970.62	218.58633
970.792	283.99475
970.964	246.01343
971.136	254.45319
971.308	203.81928
971.48	218.58633
971.652	193.27198
971.824	246.01343
971.996	144.76102
972.168	239.6838
972.339	148.97893
972.511	214.36707
972.683	224.91537
972.855	246.01343
973.027	132.10782
973.199	233.35436
973.37	170.06972
973.542	237.57397
973.714	199.6003
973.886	199.6003
974.057	212.25747
974.229	132.10782
974.401	239.6838
974.572	212.25747
974.744	157.41499
974.915	195.3814
975.087	258.67319
975.259	222.80567
975.43	157.41499
975.602	235.46415
975.773	56.20513
975.945	208.03833
976.116	170.06972
976.288	191.16258
976.459	220.69599
976.63	180.61589
976.802	115.23808
976.973	214.36707
977.145	170.06972
977.316	121.56407
977.487	197.49084
977.659	216.47669
977.83	144.76102
978.001	132.10782
978.172	134.21663
978.344	167.96055
978.515	132.10782
978.686	167.96055
978.857	157.41499
979.028	73.06989
979.2	92.04447
979.371	106.80373
979.542	125.7815
979.713	132.10782
979.884	157.41499
980.055	224.91537
980.226	123.67278
980.397	111.02086
980.568	119.45538
980.739	115.23808
980.91	153.19692
981.081	98.36974
981.252	182.72519
981.423	81.50281
981.594	123.67278
981.765	123.67278
981.936	167.96055
982.106	111.02086
982.277	108.91229
982.448	94.15287
982.619	73.06989
982.79	127.89025
982.96	119.45538
983.131	157.41499
983.302	161.63315
983.472	113.12946
983.643	83.6111
983.814	79.39455
983.984	100.4782
984.155	56.20513
984.326	92.04447
984.496	189.0532
984.667	146.86997
984.837	49.88122
985.008	123.67278
985.178	77.2863
985.349	165.85139
985.519	54.09713
985.69	123.67278
985.86	58.31314
986.031	138.43433
986.201	132.10782
986.371	70.96171
986.542	92.04447
986.712	26.69535
986.882	94.15287
987.053	22.48004
987.223	89.9361
987.393	165.85139
987.563	113.12946
987.734	123.67278
987.904	41.44967
988.074	115.23808
988.244	68.85356
988.414	100.4782
988.585	132.10782
988.755	60.42118
988.925	47.77329
989.095	167.96055
989.265	83.6111
989.435	132.10782
989.605	140.5432
989.775	24.58768
989.945	83.6111
990.115	47.77329
990.285	98.36974
990.455	35.12624
990.625	43.55752
990.795	22.48004
990.965	79.39455
991.134	92.04447
991.304	98.36974
991.474	22.48004
991.644	47.77329
991.814	96.26129
991.984	56.20513
992.153	37.23403
992.323	85.71941
992.493	45.6654
992.662	70.96171
992.832	28.80304
993.002	81.50281
993.171	49.88122
993.341	22.48004
993.511	1.40492
993.68	41.44967
993.85	51.98916
994.019	49.88122
994.189	108.91229
994.358	81.50281
994.528	-11.23899
994.697	47.77329
994.867	22.48004
995.036	51.98916
995.206	106.80373
995.375	75.17808
995.544	98.36974
995.714	30.91075
995.883	64.63732
996.052	11.94218
996.222	-32.31023
996.391	22.48004
996.56	30.91075
996.73	16.15725
996.899	100.4782
997.068	24.58768
997.237	30.91075
997.406	37.23403
997.576	5.61975
997.745	35.12624
997.914	18.26482
998.083	115.23808
998.252	60.42118
998.421	35.12624
998.59	30.91075
998.759	96.26129
998.928	30.91075
999.097	60.42118
999.266	83.6111
999.435	35.12624
999.604	104.6952
999.773	26.69535
999.942	-78.65817
1000.111	30.91075
1000.28	20.37242
1000.448	68.85356
1000.617	22.48004
1000.786	43.55752
1000.955	89.9361
1001.124	73.06989
1001.292	138.43433
1001.461	39.34183
1001.63	85.71941
1001.798	7.72721
1001.967	75.17808
1002.136	-47.05863
1002.304	1.40492
1002.473	79.39455
1002.642	70.96171
1002.81	68.85356
1002.979	60.42118
1003.147	98.36974
1003.316	68.85356
1003.484	33.01848
1003.653	43.55752
1003.821	73.06989
1003.99	-13.34623
1004.158	5.61975
1004.327	119.45538
1004.495	51.98916
1004.663	92.04447
1004.832	81.50281
1005	11.94218
1005.168	81.50281
1005.337	22.48004
1005.505	14.04971
1005.673	75.17808
1005.842	89.9361
1006.01	-28.09618
1006.178	-2.80981
1006.346	37.23403
1006.514	-7.02445
1006.683	3.51233
1006.851	35.12624
1007.019	56.20513
1007.187	-7.02445
1007.355	89.9361
1007.523	121.56407
1007.691	26.69535
1007.859	-32.31023
1008.027	16.15725
1008.195	39.34183
1008.363	66.74543
1008.531	81.50281
1008.699	16.15725
1008.867	56.20513
1009.035	45.6654
1009.203	-44.95179
1009.37	49.88122
1009.538	16.15725
1009.706	102.58669
1009.874	30.91075
1010.042	106.80373
1010.209	43.55752
1010.377	60.42118
1010.545	39.34183
1010.713	7.72721
1010.88	37.23403
1011.048	-9.13173
1011.216	115.23808
1011.383	89.9361
1011.551	-4.91714
1011.718	14.04971
1011.886	41.44967
1012.054	41.44967
1012.221	-9.13173
1012.389	51.98916
1012.556	56.20513
1012.724	-11.23899
1012.891	47.77329
1013.058	49.88122
1013.226	47.77329
1013.393	1.40492
1013.561	-7.02445
1013.728	39.34183
1013.895	-0.70246
1014.063	22.48004
1014.23	60.42118
1014.397	56.20513
1014.565	56.20513
1014.732	11.94218
1014.899	-19.66778
1015.066	98.36974
1015.233	64.63732
1015.401	30.91075
1015.568	22.48004
1015.735	1.40492
1015.902	-36.52418
1016.069	75.17808
1016.236	33.01848
1016.403	89.9361
1016.57	33.01848
1016.737	28.80304
1016.904	24.58768
1017.071	56.20513
1017.238	-25.98912
1017.405	-82.87101
1017.572	68.85356
1017.739	58.31314
1017.906	73.06989
1018.073	18.26482
1018.24	-32.31023
1018.407	75.17808
1018.573	41.44967
1018.74	115.23808
1018.907	89.9361
1019.074	-2.80981
1019.241	11.94218
1019.407	58.31314
1019.574	33.01848
1019.741	9.83468
1019.907	54.09713
1020.074	47.77329
1020.241	62.52924
1020.407	30.91075
1020.574	123.67278
1020.74	39.34183
1020.907	-13.34623
1021.073	121.56407
1021.24	-76.55171
1021.406	-4.91714
1021.573	16.15725
1021.739	56.20513
1021.906	89.9361
1022.072	24.58768
1022.239	-13.34623
1022.405	51.98916
1022.571	47.77329
1022.738	-11.23899
1022.904	89.9361
1023.07	98.36974
1023.237	100.4782
1023.403	-36.52418
1023.569	45.6654
1023.735	30.91075
1023.902	30.91075
1024.068	-4.91714
1024.234	24.58768
1024.4	41.44967
1024.566	26.69535
1024.732	3.51233
1024.898	85.71941
1025.065	64.63732
1025.231	24.58768
1025.397	89.9361
1025.563	37.23403
1025.729	-44.95179
1025.895	-38.63112
1026.061	28.80304
1026.227	56.20513
1026.392	-4.91714
1026.558	49.88122
1026.724	-32.31023
1026.89	-7.02445
1027.056	-23.88203
1027.222	47.77329
1027.388	43.55752
1027.553	-32.31023
1027.719	18.26482
1027.885	-21.77492
1028.051	24.58768
1028.216	60.42118
1028.382	41.44967
1028.548	56.20513
1028.713	-2.80981
1028.879	39.34183
1029.045	33.01848
1029.21	41.44967
1029.376	-19.66778
1029.541	14.04971
1029.707	41.44967
1029.873	85.71941
1030.038	37.23403
1030.204	22.48004
1030.369	22.48004
1030.534	22.48004
1030.7	100.4782
1030.865	33.01848
1031.031	35.12624
1031.196	41.44967
1031.361	26.69535
1031.527	1.40492
1031.692	47.77329
1031.857	41.44967
1032.023	18.26482
1032.188	-2.80981
1032.353	-28.09618
1032.518	-17.56062
1032.684	60.42118
1032.849	56.20513
1033.014	26.69535
1033.179	49.88122
1033.344	-40.73804
1033.509	-0.70246
1033.674	47.77329
1033.839	-0.70246
1034.004	75.17808
1034.17	26.69535
1034.335	22.48004
1034.5	-23.88203
1034.664	64.63732
1034.829	28.80304
1034.994	14.04971
1035.159	94.15287
1035.324	75.17808
1035.489	1.40492
1035.654	22.48004
1035.819	96.26129
1035.984	24.58768
1036.148	-42.84492
1036.313	1.40492
1036.478	51.98916
1036.643	18.26482
1036.807	1.40492
1036.972	9.83468
1037.137	64.63732
1037.301	33.01848
1037.466	5.61975
1037.631	58.31314
1037.795	75.17808
1037.96	75.17808
1038.124	16.15725
1038.289	28.80304
1038.454	62.52924
1038.618	9.83468
1038.783	-2.80981
1038.947	-11.23899
1039.111	22.48004
1039.276	39.34183
1039.44	22.48004
1039.605	24.58768
1039.769	16.15725
1039.933	3.51233
1040.098	26.69535
1040.262	7.72721
1040.426	-34.41722
1040.591	64.63732
1040.755	64.63732
1040.919	26.69535
1041.083	62.52924
1041.248	73.06989
1041.412	5.61975
1041.576	7.72721
1041.74	37.23403
1041.904	39.34183
1042.068	-17.56062
1042.232	64.63732
1042.397	18.26482
1042.561	-2.80981
1042.725	18.26482
1042.889	37.23403
1043.053	14.04971
1043.217	-40.73804
1043.381	-0.70246
1043.544	111.02086
1043.708	14.04971
1043.872	83.6111
1044.036	-28.09618
1044.2	-0.70246
1044.364	41.44967
1044.528	26.69535
1044.691	30.91075
1044.855	33.01848
1045.019	-19.66778
1045.183	43.55752
1045.346	-2.80981
1045.51	-9.13173
1045.674	14.04971
1045.837	56.20513
1046.001	-53.37899
1046.165	22.48004
1046.328	125.7815
1046.492	24.58768
1046.655	-11.23899
1046.819	77.2863
1046.983	35.12624
1047.146	41.44967
1047.31	49.88122
1047.473	-23.88203
1047.636	7.72721
1047.8	37.23403
1047.963	26.69535
1048.127	56.20513
1048.29	14.04971
