Data from mixed_try1_USB4F045381__10__00032.txt Node

Date: Thu Apr 03 19:32:53 EDT 2025
User: mmckonesweet
Spectrometer: USB4F04538
Trigger mode: 4
Integration Time (sec): 2.700000E-3
Scans to average: 1
Electric dark correction enabled: true
Nonlinearity correction enabled: true
Boxcar width: 0
XAxis mode: Wavelengths
Number of Pixels in Spectrum: 3648
>>>>>Begin Spectral Data<<<<<
345.52	36.00449
345.736	36.00449
345.952	36.00449
346.168	-48.28761
346.384	-12.46822
346.6	23.35822
346.816	12.82031
347.032	-6.14641
347.248	-71.461
347.464	2.283
347.68	-12.46822
347.896	-29.32529
348.112	65.5157
348.328	-27.21824
348.544	25.46587
348.76	14.92785
348.975	2.283
349.191	-27.21824
349.407	-56.71465
349.623	29.68125
349.839	4.39042
350.055	-23.00407
350.27	-23.00407
350.486	-4.03909
350.702	27.57355
350.918	-6.14641
351.133	-39.86016
351.349	12.82031
351.565	31.78897
351.781	-31.43231
351.996	-39.86016
352.212	27.57355
352.428	33.89672
352.644	23.35822
352.859	-73.56752
353.075	-56.71465
353.291	27.57355
353.506	-6.14641
353.722	48.65159
353.938	-10.36097
354.153	10.7128
354.369	-1.93175
354.584	-29.32529
354.8	-6.14641
355.016	36.00449
355.231	2.283
355.447	-4.03909
355.662	40.22009
355.878	52.86748
356.093	-12.46822
356.309	-56.71465
356.524	-23.00407
356.74	46.54368
356.955	33.89672
357.171	6.49786
357.386	25.46587
357.602	-20.89695
357.817	-27.21824
358.033	36.00449
358.248	23.35822
358.464	2.283
358.679	-52.50118
358.895	-14.57544
359.11	-6.14641
359.325	10.7128
359.541	-107.26832
359.756	12.82031
359.972	-1.93175
360.187	52.86748
360.402	4.39042
360.618	27.57355
360.833	69.73195
361.048	27.57355
361.264	-29.32529
361.479	12.82031
361.694	-73.56752
361.909	-6.14641
362.125	-39.86016
362.34	40.22009
362.555	44.4358
362.77	-14.57544
362.986	19.14299
363.201	-39.86016
363.416	36.00449
363.631	-16.68263
363.847	-18.7898
364.062	6.49786
364.277	-44.07393
364.492	78.16474
364.707	-37.75323
364.922	12.82031
365.138	38.11228
365.353	-67.24789
365.568	4.39042
365.783	-41.96706
365.998	2.283
366.213	2.283
366.428	-6.14641
366.643	50.75953
366.858	-77.78048
367.073	27.57355
367.288	-46.18078
367.503	-14.57544
367.718	-90.41875
367.933	-10.36097
368.148	71.84011
368.363	61.29953
368.578	-33.53931
368.793	-6.14641
369.008	-20.89695
369.223	-52.50118
369.438	-25.11117
369.653	50.75953
369.868	0.17561
370.083	33.89672
370.298	44.4358
370.513	-50.3944
370.728	54.97546
370.943	6.49786
371.157	-35.64629
371.372	-6.14641
371.587	61.29953
371.802	4.39042
372.017	42.32793
372.232	12.82031
372.446	-46.18078
372.661	6.49786
372.876	48.65159
373.091	84.48956
373.306	-27.21824
373.52	82.38126
373.735	-31.43231
373.95	2.283
374.165	27.57355
374.379	27.57355
374.594	2.283
374.809	12.82031
375.023	59.19149
375.238	-20.89695
375.453	-14.57544
375.667	25.46587
375.882	2.283
376.097	-18.7898
376.311	-60.92802
376.526	-6.14641
376.741	54.97546
376.955	-14.57544
377.17	-71.461
377.384	31.78897
377.599	2.283
377.813	10.7128
378.028	31.78897
378.242	2.283
378.457	38.11228
378.672	-4.03909
378.886	25.46587
379.101	27.57355
379.315	4.39042
379.53	-20.89695
379.744	-16.68263
379.958	50.75953
380.173	14.92785
380.387	-4.03909
380.602	52.86748
380.816	-63.03467
381.031	10.7128
381.245	2.283
381.459	-52.50118
381.674	-73.56752
381.888	-31.43231
382.103	6.49786
382.317	19.14299
382.531	-6.14641
382.746	2.283
382.96	-27.21824
383.174	10.7128
383.388	19.14299
383.603	-56.71465
383.817	-20.89695
384.031	63.4076
384.246	25.46587
384.46	-56.71465
384.674	14.92785
384.888	-35.64629
385.103	2.283
385.317	4.39042
385.531	-44.07393
385.745	27.57355
385.959	78.16474
386.174	-52.50118
386.388	38.11228
386.602	-75.67402
386.816	-6.14641
387.03	-69.35446
387.244	-14.57544
387.458	4.39042
387.672	21.25059
387.887	10.7128
388.101	21.25059
388.315	-54.60793
388.529	-29.32529
388.743	14.92785
388.957	46.54368
389.171	21.25059
389.385	-31.43231
389.599	-27.21824
389.813	40.22009
390.027	4.39042
390.241	-23.00407
390.455	-18.7898
390.669	-31.43231
390.883	73.9483
391.097	69.73195
391.311	-56.71465
391.525	-65.14129
391.738	52.86748
391.952	-71.461
392.166	36.00449
392.38	2.283
392.594	-46.18078
392.808	23.35822
393.022	14.92785
393.236	44.4358
393.449	-56.71465
393.663	95.03138
393.877	52.86748
394.091	-23.00407
394.305	8.60532
394.518	-29.32529
394.732	10.7128
394.946	42.32793
395.16	-56.71465
395.373	27.57355
395.587	-18.7898
395.801	88.70622
396.015	27.57355
396.228	-16.68263
396.442	2.283
396.656	-14.57544
396.869	-12.46822
397.083	36.00449
397.297	-71.461
397.51	46.54368
397.724	-73.56752
397.938	2.283
398.151	-31.43231
398.365	27.57355
398.578	40.22009
398.792	-14.57544
399.005	25.46587
399.219	21.25059
399.433	-18.7898
399.646	44.4358
399.86	-4.03909
400.073	44.4358
400.287	-75.67402
400.5	-94.6313
400.714	40.22009
400.927	29.68125
401.141	44.4358
401.354	38.11228
401.567	31.78897
401.781	23.35822
401.994	-20.89695
402.208	-1.93175
402.421	-33.53931
402.635	-4.03909
402.848	-39.86016
403.061	42.32793
403.275	-6.14641
403.488	-14.57544
403.701	-27.21824
403.915	-23.00407
404.128	-25.11117
404.341	6.49786
404.555	-14.57544
404.768	-41.96706
404.981	46.54368
405.195	23.35822
405.408	-52.50118
405.621	48.65159
405.834	6.49786
406.048	-73.56752
406.261	-14.57544
406.474	52.86748
406.687	21.25059
406.9	6.49786
407.114	-31.43231
407.327	-29.32529
407.54	-37.75323
407.753	31.78897
407.966	65.5157
408.179	-29.32529
408.392	-60.92802
408.605	-14.57544
408.819	10.7128
409.032	27.57355
409.245	40.22009
409.458	-10.36097
409.671	21.25059
409.884	95.03138
410.097	17.0354
410.31	48.65159
410.523	-10.36097
410.736	-63.03467
410.949	29.68125
411.162	4.39042
411.375	-18.7898
411.588	33.89672
411.801	27.57355
412.014	-23.00407
412.227	57.08346
412.44	2.283
412.653	-48.28761
412.865	-46.18078
413.078	-1.93175
413.291	-12.46822
413.504	-27.21824
413.717	-65.14129
413.93	-4.03909
414.143	-14.57544
414.356	-86.2061
414.568	4.39042
414.781	6.49786
414.994	-1.93175
415.207	0.17561
415.42	73.9483
415.632	69.73195
415.845	86.59788
416.058	8.60532
416.271	10.7128
416.483	14.92785
416.696	14.92785
416.909	-37.75323
417.121	2.283
417.334	38.11228
417.547	-41.96706
417.759	8.60532
417.972	86.59788
418.185	-14.57544
418.397	-8.2537
418.61	78.16474
418.823	-18.7898
419.035	12.82031
419.248	-14.57544
419.46	-33.53931
419.673	-8.2537
419.885	-14.57544
420.098	6.49786
420.311	4.39042
420.523	33.89672
420.736	52.86748
420.948	2.283
421.161	6.49786
421.373	52.86748
421.586	44.4358
421.798	-10.36097
422.01	-56.71465
422.223	-12.46822
422.435	6.49786
422.648	-39.86016
422.86	21.25059
423.073	2.283
423.285	14.92785
423.497	29.68125
423.71	23.35822
423.922	10.7128
424.134	10.7128
424.347	19.14299
424.559	50.75953
424.771	-12.46822
424.984	-12.46822
425.196	12.82031
425.408	23.35822
425.621	-67.24789
425.833	46.54368
426.045	10.7128
426.257	2.283
426.47	-6.14641
426.682	14.92785
426.894	-37.75323
427.106	-4.03909
427.318	-10.36097
427.531	-69.35446
427.743	40.22009
427.955	-6.14641
428.167	21.25059
428.379	27.57355
428.591	12.82031
428.804	-29.32529
429.016	63.4076
429.228	4.39042
429.44	52.86748
429.652	12.82031
429.864	78.16474
430.076	2.283
430.288	36.00449
430.5	86.59788
430.712	-35.64629
430.924	-6.14641
431.136	40.22009
431.348	-35.64629
431.56	33.89672
431.772	-33.53931
431.984	44.4358
432.196	6.49786
432.408	6.49786
432.62	61.29953
432.832	29.68125
433.044	40.22009
433.256	6.49786
433.468	-35.64629
433.679	-8.2537
433.891	6.49786
434.103	69.73195
434.315	-6.14641
434.527	2.283
434.739	-6.14641
434.95	4.39042
435.162	10.7128
435.374	14.92785
435.586	-37.75323
435.798	36.00449
436.009	38.11228
436.221	52.86748
436.433	-6.14641
436.645	21.25059
436.856	44.4358
437.068	21.25059
437.28	-10.36097
437.491	14.92785
437.703	-77.78048
437.915	38.11228
438.126	-25.11117
438.338	2.283
438.55	44.4358
438.761	12.82031
438.973	2.283
439.184	57.08346
439.396	95.03138
439.608	-1.93175
439.819	-14.57544
440.031	86.59788
440.242	29.68125
440.454	25.46587
440.665	59.19149
440.877	-81.99334
441.088	10.7128
441.3	-37.75323
441.511	69.73195
441.723	-10.36097
441.934	-18.7898
442.146	63.4076
442.357	14.92785
442.569	132.98649
442.78	38.11228
442.991	-29.32529
443.203	19.14299
443.414	2.283
443.626	4.39042
443.837	-35.64629
444.048	-39.86016
444.26	-10.36097
444.471	86.59788
444.682	48.65159
444.894	46.54368
445.105	-37.75323
445.316	-48.28761
445.528	52.86748
445.739	2.283
445.95	19.14299
446.161	61.29953
446.373	40.22009
446.584	-31.43231
446.795	52.86748
447.006	-12.46822
447.217	19.14299
447.429	-69.35446
447.64	31.78897
447.851	23.35822
448.062	10.7128
448.273	-20.89695
448.484	-98.84375
448.695	29.68125
448.907	19.14299
449.118	88.70622
449.329	23.35822
449.54	31.78897
449.751	-20.89695
449.962	19.14299
450.173	-23.00407
450.384	-6.14641
450.595	-23.00407
450.806	-23.00407
451.017	-37.75323
451.228	52.86748
451.439	44.4358
451.65	-71.461
451.861	-4.03909
452.072	46.54368
452.283	-35.64629
452.494	-54.60793
452.705	29.68125
452.915	44.4358
453.126	-18.7898
453.337	38.11228
453.548	21.25059
453.759	-27.21824
453.97	-12.46822
454.181	-10.36097
454.391	54.97546
454.602	6.49786
454.813	2.283
455.024	71.84011
455.235	12.82031
455.445	-12.46822
455.656	52.86748
455.867	54.97546
456.078	19.14299
456.288	-31.43231
456.499	40.22009
456.71	-35.64629
456.921	-56.71465
457.131	-73.56752
457.342	-4.03909
457.553	-1.93175
457.763	38.11228
457.974	-6.14641
458.184	54.97546
458.395	-73.56752
458.606	-23.00407
458.816	29.68125
459.027	-65.14129
459.237	69.73195
459.448	-25.11117
459.659	23.35822
459.869	33.89672
460.08	-65.14129
460.29	44.4358
460.501	19.14299
460.711	4.39042
460.922	92.92297
461.132	-6.14641
461.343	-29.32529
461.553	54.97546
461.764	-1.93175
461.974	10.7128
462.184	-39.86016
462.395	4.39042
462.605	65.5157
462.816	-10.36097
463.026	2.283
463.236	29.68125
463.447	33.89672
463.657	46.54368
463.867	-6.14641
464.078	65.5157
464.288	-31.43231
464.498	-52.50118
464.709	-20.89695
464.919	29.68125
465.129	38.11228
465.339	-12.46822
465.55	-6.14641
465.76	63.4076
465.97	19.14299
466.18	21.25059
466.391	52.86748
466.601	25.46587
466.811	-46.18078
467.021	-31.43231
467.231	-56.71465
467.441	-48.28761
467.651	8.60532
467.862	-1.93175
468.072	-23.00407
468.282	-31.43231
468.492	-4.03909
468.702	-4.03909
468.912	-6.14641
469.122	12.82031
469.332	-48.28761
469.542	-63.03467
469.752	-46.18078
469.962	78.16474
470.172	-14.57544
470.382	12.82031
470.592	17.0354
470.802	44.4358
471.012	21.25059
471.222	61.29953
471.432	52.86748
471.642	4.39042
471.852	2.283
472.062	48.65159
472.272	21.25059
472.482	80.27299
472.691	-4.03909
472.901	57.08346
473.111	27.57355
473.321	36.00449
473.531	27.57355
473.741	36.00449
473.95	-4.03909
474.16	69.73195
474.37	31.78897
474.58	71.84011
474.79	-10.36097
474.999	69.73195
475.209	-18.7898
475.419	40.22009
475.628	73.9483
475.838	-8.2537
476.048	21.25059
476.258	36.00449
476.467	-20.89695
476.677	19.14299
476.886	21.25059
477.096	63.4076
477.306	-63.03467
477.515	10.7128
477.725	-4.03909
477.935	69.73195
478.144	38.11228
478.354	36.00449
478.563	52.86748
478.773	-12.46822
478.982	29.68125
479.192	86.59788
479.401	52.86748
479.611	19.14299
479.82	27.57355
480.03	44.4358
480.239	67.62381
480.449	12.82031
480.658	14.92785
480.868	52.86748
481.077	2.283
481.287	27.57355
481.496	0.17561
481.705	44.4358
481.915	31.78897
482.124	-31.43231
482.333	52.86748
482.543	103.46523
482.752	31.78897
482.961	-6.14641
483.171	97.13981
483.38	25.46587
483.589	25.46587
483.799	99.24826
484.008	111.89944
484.217	27.57355
484.426	27.57355
484.636	44.4358
484.845	21.25059
485.054	-52.50118
485.263	-16.68263
485.472	76.05651
485.682	103.46523
485.891	-31.43231
486.1	36.00449
486.309	33.89672
486.518	78.16474
486.727	-6.14641
486.936	4.39042
487.146	69.73195
487.355	-23.00407
487.564	69.73195
487.773	23.35822
487.982	40.22009
488.191	19.14299
488.4	107.68229
488.609	73.9483
488.818	46.54368
489.027	63.4076
489.236	27.57355
489.445	54.97546
489.654	36.00449
489.863	48.65159
490.072	78.16474
490.281	21.25059
490.49	-29.32529
490.698	-33.53931
490.907	25.46587
491.116	33.89672
491.325	21.25059
491.534	33.89672
491.743	23.35822
491.952	82.38126
492.16	88.70622
492.369	31.78897
492.578	63.4076
492.787	31.78897
492.996	52.86748
493.204	31.78897
493.413	97.13981
493.622	21.25059
493.831	107.68229
494.039	25.46587
494.248	86.59788
494.457	44.4358
494.665	44.4358
494.874	38.11228
495.083	46.54368
495.291	14.92785
495.5	80.27299
495.709	36.00449
495.917	71.84011
496.126	-14.57544
496.335	17.0354
496.543	54.97546
496.752	65.5157
496.96	154.07568
497.169	71.84011
497.377	63.4076
497.586	33.89672
497.794	21.25059
498.003	61.29953
498.211	50.75953
498.42	95.03138
498.628	111.89944
498.837	31.78897
499.045	107.68229
499.254	103.46523
499.462	52.86748
499.671	97.13981
499.879	105.57375
500.087	107.68229
500.296	105.57375
500.504	71.84011
500.713	40.22009
500.921	57.08346
501.129	52.86748
501.338	76.05651
501.546	76.05651
501.754	80.27299
501.962	88.70622
502.171	132.98649
502.379	54.97546
502.587	78.16474
502.795	105.57375
503.004	48.65159
503.212	59.19149
503.42	57.08346
503.628	154.07568
503.837	141.42191
504.045	116.11668
504.253	95.03138
504.461	86.59788
504.669	124.55141
504.877	103.46523
505.085	105.57375
505.294	95.03138
505.502	170.94855
505.71	189.93211
505.918	130.87769
506.126	154.07568
506.334	141.42191
506.542	147.7487
506.75	103.46523
506.958	149.85767
507.166	154.07568
507.374	181.49477
507.582	103.46523
507.79	200.47924
507.998	92.92297
508.206	114.00805
508.414	2.283
508.622	128.76891
508.83	95.03138
509.037	122.44269
509.245	240.56291
509.453	80.27299
509.661	154.07568
509.869	122.44269
510.077	139.31302
510.285	141.42191
510.492	187.82274
510.7	97.13981
510.908	141.42191
511.116	170.94855
511.324	99.24826
511.531	88.70622
511.739	128.76891
511.947	200.47924
512.155	130.87769
512.362	192.04149
512.57	149.85767
512.778	151.96666
512.985	107.68229
513.193	130.87769
513.401	181.49477
513.608	189.93211
513.816	145.63975
514.024	181.49477
514.231	204.69824
514.439	257.44235
514.646	111.89944
514.854	187.82274
515.061	154.07568
515.269	156.18471
515.477	166.73021
515.684	282.76378
515.892	99.24826
516.099	291.20486
516.307	179.38548
516.514	236.34324
516.722	164.62107
516.929	183.60407
517.136	162.51195
517.344	166.73021
517.551	230.01389
517.759	196.26033
517.966	196.26033
518.173	179.38548
518.381	145.63975
518.588	132.98649
518.796	282.76378
519.003	234.23344
519.21	297.53586
519.418	240.56291
519.625	261.6624
519.832	263.77245
520.039	223.68471
520.247	293.31517
520.454	276.43317
520.661	238.45306
520.868	232.12365
521.076	276.43317
521.283	259.55236
521.49	335.52528
521.697	327.08269
521.904	272.21286
522.112	221.57502
522.319	221.57502
522.526	251.11241
522.733	284.87402
522.94	322.8615
523.147	299.64623
523.354	291.20486
523.561	403.07593
523.768	249.00247
523.975	213.13647
524.183	192.04149
524.39	352.41131
524.597	249.00247
524.804	305.97745
525.011	255.33235
525.218	341.85741
525.425	280.65356
525.632	322.8615
525.838	348.18969
526.045	253.22237
526.252	270.10273
526.459	373.52039
526.666	362.96564
526.873	327.08269
527.08	335.52528
527.287	409.40968
527.494	257.44235
527.701	301.75662
527.907	356.63299
528.114	428.41181
528.321	390.40887
528.528	449.52678
528.735	331.30395
528.941	390.40887
529.148	398.85351
529.355	305.97745
529.562	491.76134
529.768	386.18665
529.975	417.85491
530.182	398.85351
530.388	320.75093
530.595	474.86679
530.802	483.31395
531.008	508.65683
531.215	432.63468
531.422	434.74613
531.628	449.52678
531.835	508.65683
532.042	377.74241
532.248	502.32091
532.455	447.41521
532.661	441.0806
532.868	483.31395
533.074	517.10492
533.281	500.20897
533.487	527.66536
533.694	384.07557
533.9	629.0628
534.107	470.64331
534.313	576.24783
534.52	474.86679
534.726	614.27381
534.933	542.45056
535.139	521.32906
535.345	534.00179
535.552	730.48869
535.758	622.72459
535.965	576.24783
536.171	561.4611
536.377	639.62674
536.584	648.07811
536.79	669.20737
536.996	584.69769
537.203	652.30387
537.409	673.43336
537.615	681.88549
537.821	500.20897
538.028	760.07603
538.234	677.6594
538.44	692.4509
538.646	580.47273
538.853	762.18949
539.059	694.56402
539.265	703.0166
539.471	694.56402
539.677	825.5978
539.883	656.52967
540.09	787.55177
540.296	662.86847
540.502	745.2821
540.708	705.12977
540.914	812.91545
541.12	673.43336
541.326	867.8746
541.532	798.1198
541.738	880.55831
541.944	677.6594
542.15	838.28047
542.356	857.30507
542.562	867.8746
542.768	905.92662
542.974	897.47039
543.18	791.77895
543.386	891.1283
543.592	884.78628
543.798	914.38297
544.004	876.33038
544.21	891.1283
544.415	939.75276
544.621	950.32382
544.827	905.92662
545.033	1136.4
545.239	933.41021
545.445	1026.44046
545.651	946.09537
545.856	1043.35637
546.062	998.95292
546.268	1066.61634
546.474	1030.6694
546.679	882.67229
546.885	969.35217
547.091	1079.30388
547.297	973.58077
547.502	1062.38721
547.708	990.49543
547.914	996.83854
548.119	1013.75377
548.325	1032.78388
548.531	956.66654
548.736	1049.69993
548.942	969.35217
549.147	1172.35107
549.353	1176.58068
549.559	1254.831
549.764	1146.97372
549.97	1252.71607
550.175	1083.5331
550.381	1142.74422
550.586	1142.74422
550.792	1197.72897
550.997	1104.6795
551.203	1212.53298
551.408	1149.08848
551.614	1307.70499
551.819	1180.81031
552.025	1352.1201
552.23	1187.15478
552.435	1438.83675
552.641	1218.87761
552.846	1453.64212
553.052	1295.01511
553.257	1396.53579
553.462	1364.81025
553.668	1525.55371
553.873	1354.23512
554.078	1504.40331
554.283	1197.72897
554.489	1514.97852
554.694	1350.00508
554.899	1407.11101
555.105	1402.88092
555.31	1593.23424
555.515	1343.66002
555.72	1618.61401
555.925	1426.14645
556.131	1504.40331
556.336	1493.82808
556.541	1612.26909
556.746	1407.11101
556.951	1608.03914
557.156	1383.84555
557.361	1637.64864
557.567	1489.59798
557.772	1591.11924
557.977	1523.43867
558.182	1671.48751
558.387	1531.89881
558.592	1654.56816
558.797	1531.89881
559.002	1671.48751
559.207	1464.21738
559.412	1718.01479
559.617	1591.11924
559.822	1760.31093
560.027	1694.75133
560.232	1794.14676
560.437	1684.17691
560.642	1756.08138
560.847	1654.56816
561.051	1777.22897
561.256	1506.51835
561.461	1756.08138
561.666	1874.50238
561.871	1817.40828
562.076	1658.79801
562.281	1711.67025
562.485	1658.79801
562.69	1711.67025
562.895	1764.54046
563.1	1999.25
563.305	1770.88474
563.509	1861.81511
563.714	1895.64743
563.919	2007.7067
564.123	1789.91734
564.328	1956.96496
564.533	1889.30397
564.737	2064.78664
564.942	1967.53645
565.147	2083.81215
565.351	1887.18947
565.556	1948.50765
565.761	1870.27331
565.965	1904.1053
566.17	1870.27331
566.374	2119.74759
566.579	1992.9074
566.784	2066.90062
566.988	1908.3342
567.193	2271.91878
567.397	1918.90636
567.602	2183.15757
567.806	1874.50238
568.011	2128.20267
568.215	2058.44468
568.42	2126.08891
568.624	2005.59254
568.828	2210.63292
569.033	2030.96209
569.237	2263.46601
569.442	2081.69824
569.646	2060.55867
569.85	2126.08891
570.055	2265.57922
570.259	2134.54389
570.463	2276.14511
570.668	2246.56003
570.872	2377.56559
571.076	2278.25827
571.281	2337.42268
571.485	2301.50232
571.689	2140.88505
571.893	2155.6808
572.098	2428.26715
572.302	2142.99875
572.506	2540.21099
572.71	2085.92606
572.914	2732.33877
573.119	2200.06565
573.323	2580.33398
573.527	2326.85816
573.731	2601.44962
573.935	2483.18691
574.139	2582.4456
574.343	2320.51933
574.547	2487.4112
574.751	2394.46678
574.955	2734.44948
575.159	2531.76351
575.364	2588.78038
575.568	2328.97108
575.772	2675.34466
575.976	2455.72795
576.18	2578.22235
576.383	2601.44962
576.587	2698.56562
576.791	2462.0648
576.995	2755.55585
577.199	2466.28931
577.403	2426.15471
577.607	2639.45469
577.811	2833.63766
578.015	2411.3673
578.219	2774.55044
578.422	2658.45572
578.626	2730.22805
578.83	2504.30791
579.034	2934.90436
579.238	2639.45469
579.442	2816.7567
579.645	2500.0838
579.849	2833.63766
580.053	2759.77697
580.257	2972.87072
580.46	2749.22408
580.664	3065.65676
580.868	2772.43999
581.071	2949.66962
581.275	2717.56343
581.479	2924.3573
581.682	2863.17719
581.886	3069.8736
582.09	2979.19797
582.293	3154.19708
582.497	2808.31589
582.7	3204.77879
582.904	3131.01067
583.107	3057.2229
583.311	2955.99737
583.515	2985.52509
583.718	3036.13715
583.922	3139.44232
584.125	3021.37621
584.329	3280.63346
584.532	3021.37621
584.735	3381.73871
584.939	2977.0889
585.142	3107.82232
585.346	2922.24784
585.549	3071.982
585.753	3272.20624
585.956	3295.38044
586.159	3308.02005
586.363	3263.77874
586.566	3211.10083
586.769	3238.49465
586.973	3299.59371
587.176	3377.52679
587.379	3200.564
587.582	3516.48257
587.786	3213.20815
587.989	3459.64647
588.192	3470.17267
588.395	3453.33053
588.599	3345.93516
588.802	3434.38176
589.005	3308.02005
589.208	3695.32298
589.411	3373.3148
589.615	3560.67921
589.818	3524.9016
590.021	3480.69842
590.224	3552.26143
590.427	3726.86885
590.63	3516.48257
590.833	3693.21977
591.036	3613.28361
591.239	3621.69923
591.442	3432.27625
591.645	3508.06324
591.848	3667.97974
592.051	3558.5748
592.254	3398.58569
592.457	3615.38755
592.66	3651.15152
592.863	3787.84516
593.066	3701.6325
593.269	3855.11024
593.472	3632.21833
593.675	3932.86008
593.878	3642.73696
594.081	4008.48201
594.284	3667.97974
594.486	3916.05163
594.689	3878.22792
594.892	3733.1775
595.095	3871.92334
595.298	3974.87552
595.5	3714.25102
595.703	4054.68236
595.906	4050.48274
596.109	3981.17714
596.311	3735.28034
596.514	3913.95049
596.717	3888.73516
596.92	4132.36032
597.122	3888.73516
597.325	4189.02616
597.528	3853.00851
597.73	4136.55832
597.933	3838.29587
598.136	4201.61647
598.338	3979.07662
598.541	4247.77443
598.743	4004.28149
598.946	4251.9701
599.148	4337.96236
599.351	4075.67921
599.554	4121.86497
599.756	4084.07737
599.959	4073.57962
600.161	4432.30227
600.363	4163.84324
600.566	4375.70361
600.768	4346.34992
600.971	4373.60706
601.173	4048.3829
601.376	4379.89665
601.578	4138.65728
601.78	4369.41389
601.983	4235.18692
602.185	4331.67148
602.388	4113.46831
602.59	4356.83387
602.792	4277.1423
602.995	4478.4079
603.197	4287.62981
603.399	4488.88497
603.601	4230.99091
603.804	4411.34166
604.006	4444.87758
604.208	4614.56661
604.41	4272.94715
604.613	4585.24805
604.815	4233.08893
605.017	4660.62978
605.219	4264.55659
605.421	4560.11438
605.623	4490.98031
605.826	4373.60706
606.028	4348.44675
606.23	4545.45159
606.432	4545.45159
606.634	4759.001
606.836	4440.6859
607.038	4635.50576
607.24	4482.59879
607.442	4687.84382
607.644	4499.36148
607.846	4679.47068
608.048	4643.88079
608.25	4761.09346
608.452	4578.96494
608.654	4792.47767
608.856	4503.55193
609.058	4733.88968
609.26	4830.13198
609.462	4752.72347
609.664	4666.91028
609.866	4738.07513
610.067	4524.50287
610.269	4876.14388
610.471	4729.70415
610.673	4752.72347
610.875	4871.96144
611.077	4809.21383
611.278	4752.72347
611.48	4934.68847
611.682	4775.74006
611.884	4809.21383
612.085	4566.3981
612.287	4959.7735
612.489	4700.40287
612.69	4934.68847
612.892	4876.14388
613.094	4915.87253
613.295	4800.84593
613.497	5160.33403
613.699	4911.69095
613.9	4809.21383
614.102	4848.95637
614.304	4995.30495
614.505	4744.35313
614.707	5133.1873
614.908	4911.69095
615.11	5154.06975
615.311	4980.67516
615.513	5091.41543
615.714	4951.41219
615.916	5108.12529
616.117	4717.147
616.319	5005.75411
616.52	4805.02993
616.722	5143.62882
616.923	5026.6507
617.124	5045.45565
617.326	4637.59955
617.527	5110.21392
617.729	5072.61506
617.93	5291.83548
618.131	5032.91922
618.333	5053.81281
618.534	5160.33403
618.735	5354.4226
618.937	5106.03664
619.138	5137.36398
619.339	5016.20269
619.54	5156.15787
619.742	5060.08043
619.943	5256.36009
620.144	5095.59303
620.345	5381.53713
620.546	5270.96842
620.748	5220.87795
620.949	5028.74023
621.15	5197.91532
621.351	5187.47683
621.552	5235.48906
621.753	5014.11302
621.954	5419.07378
622.155	5072.61506
622.356	5260.53402
622.558	5141.54056
622.759	5302.26813
622.96	5293.92206
623.161	5408.6477
623.362	5151.98161
623.563	5469.11081
623.764	5373.19462
623.965	5777.37262
624.166	5154.06975
624.366	5389.87927
624.567	5131.09893
624.768	5304.35459
624.969	5151.98161
625.17	5475.36449
625.371	5285.57561
625.572	5419.07378
625.773	5356.50847
625.973	5502.4613
626.174	5285.57561
626.375	5510.79798
626.576	5448.26369
626.777	5554.55937
626.977	5074.70408
627.178	5300.18165
627.379	5222.96532
627.58	5485.78681
627.78	5429.49928
627.981	5446.17885
628.182	5275.14202
628.382	5494.12424
628.583	5097.6818
628.784	5469.11081
628.984	5310.61383
629.185	5762.80431
629.386	5416.98861
629.586	5669.12328
629.787	5521.2183
629.987	5604.55967
630.188	5539.9734
630.388	5796.1016
630.589	5531.63803
630.79	5662.87618
630.99	5617.05762
631.191	5719.09245
631.391	5577.47786
631.591	5787.77785
631.792	5564.97722
631.992	5546.22467
632.193	5656.62887
632.393	5752.39767
632.594	5644.13361
632.794	5760.72303
632.994	5785.69685
633.195	5860.59791
633.395	5621.22342
633.595	5727.41932
633.796	5471.19539
633.996	5829.39285
634.196	5564.97722
634.397	5791.93977
634.597	5627.47193
634.797	5952.10213
634.997	5577.47786
635.198	5868.91836
635.398	5714.92887
635.598	5852.27708
635.798	5671.2056
635.998	5895.95723
636.199	5846.03621
636.399	6155.74304
636.599	5756.5604
636.799	6039.40449
636.999	5802.34417
637.199	5974.97105
637.399	5843.95587
637.599	6026.93527
637.799	5727.41932
637.999	6035.24817
638.199	5970.81328
638.399	5945.86466
638.599	5835.63429
638.799	6134.9737
638.999	6060.18464
639.199	6344.63622
639.399	5935.4684
639.599	6147.43559
639.799	5922.9921
639.999	6161.97338
640.199	6018.62198
640.399	5943.78545
640.599	5719.09245
640.799	6155.74304
640.998	6085.11771
641.198	6234.6451
641.398	5958.33939
641.598	6267.85689
641.798	6047.71683
641.997	6290.68652
642.197	5964.57644
642.397	6201.42731
642.597	6087.19532
642.796	6255.40317
642.996	5904.27608
643.196	6309.3632
643.395	6045.63878
643.595	6122.51098
643.795	6076.80707
643.994	6404.79226
644.194	6112.12472
644.394	6583.07108
644.593	6155.74304
644.793	6610.0053
644.992	6218.03695
645.192	6265.78133
645.392	6479.44149
645.591	6545.77109
645.791	6305.21299
645.99	6508.46361
646.19	6334.2625
646.389	6381.97676
646.589	6454.56176
646.788	6363.30743
646.987	6500.17204
647.187	6690.78459
647.386	6479.44149
647.586	6651.43495
647.785	6520.90027
647.984	6645.22109
648.184	6551.98828
648.383	6715.63272
648.582	6328.03799
648.782	6814.99228
648.981	6483.58779
649.18	6610.0053
649.38	6601.71826
649.579	6777.73862
649.778	6392.34779
649.977	6806.71433
650.177	6415.16201
650.376	6566.49423
650.575	6491.8801
650.774	6678.35929
650.973	6657.6486
651.173	6535.40866
651.372	6417.2359
651.571	6862.58343
651.77	6601.71826
651.969	7056.96189
652.168	6475.2951
652.367	6717.70325
652.566	6723.9147
652.765	6862.58343
652.964	6591.35895
653.163	6765.31909
653.362	6649.36369
653.561	6910.16257
653.76	6607.93357
653.959	6800.50562
654.158	6825.33921
654.357	6781.87828
654.556	6566.49423
654.755	6759.10901
654.954	6624.50673
655.153	6885.34017
655.352	6723.9147
655.551	6914.29932
655.749	6761.17906
655.948	6901.8888
656.147	7081.76184
656.346	6897.75178
656.545	7040.42679
656.743	6860.5145
656.942	6978.40737
657.141	7152.01093
657.34	6980.47501
657.538	6730.12594
657.737	6794.29671
657.936	7189.1912
658.135	7081.76184
658.333	7059.02867
658.532	7025.9574
658.731	7087.96133
658.929	7042.49375
659.128	6932.91357
659.326	6661.79092
659.525	7069.36227
659.724	6786.01785
659.922	6908.09416
660.121	6910.16257
660.319	7209.84381
660.518	6850.16951
660.716	7063.16218
660.915	6980.47501
661.113	7224.29931
661.312	7094.16062
661.51	7201.58303
661.709	7023.89025
661.907	7220.16928
662.105	7141.6818
662.304	7253.20707
662.502	6951.52599
662.701	7121.02186
662.899	7191.25656
663.097	7100.3597
663.296	7071.42892
663.494	7178.86407
663.692	6943.25403
663.891	7286.23922
664.089	6939.11791
664.287	7143.74767
664.485	6930.84541
664.684	7292.43213
664.882	7063.16218
665.08	7302.75319
665.278	7201.58303
665.476	7218.10423
665.675	7168.53638
665.873	7339.90447
666.071	7383.23868
666.269	7511.12187
666.467	7432.75173
666.665	7463.69104
666.863	7038.3598
667.061	7500.81179
667.259	7420.37464
667.457	7587.39977
667.655	7284.17488
667.853	7335.7769
668.051	7253.20707
668.249	7154.07669
668.447	7056.96189
668.645	7449.2533
668.843	7393.55494
669.041	7253.20707
669.239	7240.81856
669.437	7046.62762
669.635	7054.89508
669.833	7286.23922
670.031	7218.10423
670.229	7205.71346
670.426	7154.07669
670.624	7292.43213
670.822	7273.85283
671.02	7494.62548
671.218	7187.12582
671.415	7562.66421
671.613	7199.51778
671.811	7319.26575
672.009	7445.12804
672.206	7329.58539
672.404	7158.20814
672.602	7292.43213
672.799	7038.3598
672.997	7377.04867
673.195	7240.81856
673.392	7467.81591
673.59	7364.66806
673.788	7416.24877
673.985	7238.75373
674.183	7255.27175
674.38	7222.2343
674.578	7533.80215
674.775	7552.35681
674.973	7643.04356
675.17	7329.58539
675.368	7465.75349
675.565	7195.38722
675.763	7521.43141
675.96	7108.62483
676.158	7626.55813
676.355	7228.42926
676.553	7690.43162
676.75	7265.59479
676.947	7568.84839
677.145	7075.56216
677.342	7211.90894
677.539	7304.81734
677.737	7393.55494
677.934	7430.68894
678.131	7335.7769
678.329	7348.15935
678.526	7397.68128
678.723	7562.66421
678.92	7558.54131
679.118	7410.05981
679.315	7391.49173
679.512	7205.71346
679.709	7756.34426
679.906	7284.17488
680.104	7350.22302
680.301	7263.53023
680.498	7102.42602
680.695	7436.87726
680.892	7471.9407
681.089	7292.43213
681.286	7360.54101
681.483	7362.60455
681.68	7698.67188
681.877	7401.80755
682.075	7579.15492
682.272	7240.81856
682.469	7634.80102
682.665	7162.3395
682.862	7335.7769
683.059	7104.49231
683.256	7323.39367
683.453	7311.00964
683.65	7335.7769
683.847	7240.81856
684.044	7469.87832
684.241	7370.85846
684.438	7572.97107
684.635	7249.07766
684.831	7585.33859
685.028	7360.54101
685.225	7776.93755
685.422	7228.42926
685.619	7500.81179
685.815	7069.36227
686.012	7620.37574
686.209	7213.97406
686.405	7443.06538
686.602	7172.66752
686.799	7257.3364
686.996	7341.96823
687.192	7391.49173
687.389	7244.94815
687.586	7348.15935
687.782	7298.62483
687.979	7244.94815
688.175	7170.60196
688.372	7368.79502
688.568	7203.64826
688.765	7426.56329
688.962	7377.04867
689.158	7232.55911
689.355	7176.79858
689.551	7492.56334
689.748	7298.62483
689.944	7517.30766
690.14	7108.62483
690.337	7403.87064
690.533	7090.02778
690.73	7443.06538
690.926	7424.50043
691.123	7383.23868
691.319	7139.6159
691.515	7201.58303
691.712	7236.68888
691.908	7147.87934
692.104	6839.82395
692.301	7261.46564
692.497	7013.55419
692.693	7459.56608
692.889	7337.8407
693.086	7393.55494
693.282	7362.60455
693.478	7461.62857
693.674	7399.74443
693.87	7236.68888
694.067	7257.3364
694.263	7476.0654
694.459	7063.16218
694.655	7360.54101
694.851	7238.75373
695.047	7222.2343
695.243	7063.16218
695.439	7280.04612
695.635	7036.29279
695.831	7410.05981
696.027	7143.74767
696.224	7257.3364
696.42	7218.10423
696.615	7273.85283
696.811	7275.91728
697.007	7339.90447
697.203	6943.25403
697.399	7170.60196
697.595	7296.56062
697.791	7304.81734
697.987	7319.26575
698.183	7453.37848
698.379	7195.38722
698.575	7368.79502
698.77	7197.45251
698.966	7317.20175
699.162	7203.64826
699.358	7484.31454
699.554	7137.54999
699.749	7453.37848
699.945	7090.02778
700.141	7401.80755
700.337	7009.41961
700.532	7420.37464
700.728	7337.8407
700.924	7443.06538
701.119	7168.53638
701.315	7327.5215
701.511	7090.02778
701.706	7426.56329
701.902	7290.36785
702.097	7525.55508
702.293	7075.56216
702.489	7474.00306
702.684	7054.89508
702.88	7445.12804
703.075	7360.54101
703.271	7354.35028
703.466	7077.62874
703.662	7422.43755
703.857	7075.56216
704.053	7315.13774
704.248	7327.5215
704.443	7414.18581
704.639	7356.41388
704.834	7465.75349
705.03	7228.42926
705.225	7372.92189
705.42	6992.88037
705.616	7467.81591
705.811	7121.02186
706.006	7608.01039
706.202	7061.09544
706.397	7187.12582
706.592	7172.66752
706.787	7436.87726
706.983	7257.3364
707.178	7469.87832
707.373	7090.02778
707.568	7370.85846
707.763	6957.72972
707.959	7395.61812
708.154	7187.12582
708.349	7195.38722
708.544	7137.54999
708.739	7191.25656
708.934	6988.74534
709.129	7067.29559
709.324	6833.61634
709.519	7251.14238
709.714	6767.38907
709.909	7368.79502
710.104	6932.91357
710.299	7081.76184
710.494	6856.37657
710.689	7129.2861
710.884	7114.82345
711.079	7294.49638
711.274	7253.20707
711.469	7463.69104
711.664	6941.18598
711.859	7209.84381
712.054	7199.51778
712.249	7220.16928
712.443	6963.93325
712.638	7253.20707
712.833	6860.5145
713.028	7129.2861
713.223	7005.28493
713.417	7081.76184
713.612	7042.49375
713.807	7364.66806
714.002	7226.36429
714.196	7381.17537
714.391	7125.15403
714.586	7484.31454
714.78	7145.81352
714.975	7533.80215
715.17	7030.09162
715.364	7533.80215
715.559	7271.78835
715.754	7096.227
715.948	7112.75727
716.143	7232.55911
716.337	6968.06883
716.532	7284.17488
716.726	7021.82308
716.921	7315.13774
717.115	7054.89508
717.31	7669.82949
717.504	7170.60196
717.699	7362.60455
717.893	7114.82345
718.088	7228.42926
718.282	7168.53638
718.476	7131.35211
718.671	6817.06171
718.865	7127.22008
719.059	7104.49231
719.254	6843.96224
719.448	6601.71826
719.642	6877.06531
719.837	6694.92618
720.031	7071.42892
720.225	6910.16257
720.419	7079.6953
720.614	6974.27202
720.808	6891.54607
721.002	6585.14308
721.196	6978.40737
721.39	6901.8888
721.585	6881.20279
721.779	7046.62762
721.973	7368.79502
722.167	6831.54709
722.361	7160.27383
722.555	7067.29559
722.749	6982.54262
722.943	6825.33921
723.137	7054.89508
723.331	6551.98828
723.525	6992.88037
723.719	6765.31909
723.913	7092.09421
724.107	6922.57254
724.301	7038.3598
724.495	6674.21733
724.689	6796.36637
724.883	6775.66875
725.077	7094.16062
725.271	6881.20279
725.465	7030.09162
725.659	6908.09416
725.853	6957.72972
726.046	6721.84424
726.24	6837.75477
726.434	6442.12064
726.628	7001.15017
726.822	6597.5746
727.015	7079.6953
727.209	6634.8642
727.403	6835.68556
727.596	6963.93325
727.79	7174.73306
727.984	7232.55911
728.177	7308.94556
728.371	7065.2289
728.565	7121.02186
728.758	6814.99228
728.952	7145.81352
729.146	6988.74534
729.339	6941.18598
729.533	6951.52599
729.726	7096.227
729.92	7236.68888
730.113	7244.94815
730.307	7071.42892
730.5	7170.60196
730.694	6941.18598
730.887	7023.89025
731.081	7145.81352
731.274	6833.61634
731.468	6740.47755
731.661	6883.27149
731.854	6997.01532
732.048	7158.20814
732.241	6941.18598
732.435	7015.62145
732.628	6769.45902
732.821	6883.27149
733.014	6966.00105
733.208	6889.47746
733.401	6930.84541
733.594	6767.38907
733.788	6732.19631
733.981	7077.62874
734.174	6897.75178
734.367	6976.3397
734.56	6843.96224
734.754	7090.02778
734.947	6959.79759
735.14	7071.42892
735.333	7114.82345
735.526	6856.37657
735.719	6748.75843
735.912	6777.73862
736.105	6831.54709
736.298	6951.52599
736.491	6773.59887
736.684	6930.84541
736.877	6732.19631
737.07	6970.13658
737.263	6814.99228
737.456	6947.39005
737.649	6854.30758
737.842	6856.37657
738.035	6686.64292
738.228	6814.99228
738.421	6997.01532
738.614	7001.15017
738.807	6961.86543
739	6790.15733
739.192	6715.63272
739.385	6895.68323
739.578	6908.09416
739.771	6866.72123
739.964	6926.70902
740.156	7253.20707
740.349	6992.88037
740.542	7077.62874
740.735	6930.84541
740.927	6997.01532
741.12	6829.47782
741.313	6703.20907
741.505	6769.45902
741.698	6773.59887
741.891	6634.8642
742.083	6856.37657
742.276	6848.10044
742.468	6798.43601
742.661	6624.50673
742.854	6668.00423
743.046	6605.86183
743.239	6715.63272
743.431	6932.91357
743.624	6926.70902
743.816	6982.54262
744.009	6966.00105
744.201	6765.31909
744.393	6790.15733
744.586	6723.9147
744.778	6846.03135
744.971	6746.68825
745.163	6932.91357
745.355	6744.61804
745.548	6783.94807
745.74	6771.52896
745.932	6769.45902
746.125	6618.29197
746.317	6757.03894
746.509	6972.20431
746.702	6769.45902
746.894	6587.21506
747.086	6690.78459
747.278	6823.26987
747.471	7077.62874
747.663	6674.21733
747.855	6922.57254
748.047	6636.93562
748.239	6903.95727
748.431	7090.02778
748.623	7137.54999
748.815	6856.37657
749.008	7013.55419
749.2	6817.06171
749.392	6839.82395
749.584	6744.61804
749.776	7030.09162
749.968	6406.86626
750.16	6891.54607
750.352	6612.077
750.544	6821.2005
750.736	6709.421
750.928	6779.80846
751.12	6831.54709
751.311	6814.99228
751.503	6624.50673
751.695	6715.63272
751.887	6396.49604
752.079	6659.71978
752.271	6400.6442
752.463	6541.62619
752.654	6574.78284
752.846	6645.22109
753.038	6556.13295
753.23	6790.15733
753.421	6599.64644
753.613	6607.93357
753.805	6537.48119
753.997	6587.21506
754.188	6595.50274
754.38	6479.44149
754.572	6398.57013
754.763	6531.26352
754.955	6384.05101
755.146	6502.24497
755.338	6483.58779
755.53	6504.31787
755.721	6839.82395
755.913	6922.57254
756.104	6493.95312
756.296	6651.43495
756.487	6458.70862
756.679	6777.73862
756.87	6375.75386
757.062	6186.89263
757.253	6433.8261
757.445	6377.82819
757.636	6587.21506
757.827	6692.8554
758.019	6435.89977
758.21	6255.40317
758.401	6400.6442
758.593	6400.6442
758.784	6267.85689
758.975	6593.43086
759.167	6396.49604
759.358	6651.43495
759.549	6286.53589
759.74	6240.87276
759.932	6193.12192
760.123	6195.1983
760.314	6286.53589
760.505	6251.25174
760.696	6164.05011
760.888	6265.78133
761.079	6359.15844
761.27	6272.00794
761.461	6574.78284
761.652	6458.70862
761.843	6419.30975
762.034	6462.85538
762.225	6130.81955
762.416	6452.4883
762.607	6224.26518
762.798	6541.62619
762.989	6512.60926
763.18	6406.86626
763.371	6220.11305
763.562	6201.42731
763.753	6284.46054
763.944	6375.75386
764.135	6101.73788
764.326	6309.3632
764.517	6126.66531
764.708	6188.96909
764.899	6014.4652
765.089	6001.99428
765.28	6012.38677
765.471	6047.71683
765.662	5954.18124
765.853	6139.12776
766.043	5925.07155
766.234	6197.27466
766.425	6004.07283
766.615	6193.12192
766.806	6041.48261
766.997	6049.79486
767.187	5812.74798
767.378	6164.05011
767.569	6033.16998
767.759	6101.73788
767.95	6076.80707
768.141	6153.66621
768.331	5796.1016
768.522	5694.10956
768.712	5791.93977
768.903	6018.62198
769.093	6051.87286
769.284	6126.66531
769.474	5846.03621
769.665	5877.23844
769.855	5752.39767
770.046	5889.71784
770.236	5537.88959
770.426	5885.55814
770.617	5839.79513
770.807	5910.51496
770.998	5956.26033
771.188	5721.1742
771.378	5644.13361
771.569	5885.55814
771.759	5698.27361
771.949	5677.45242
772.139	5679.53465
772.33	5592.06087
772.52	5610.80875
772.71	5960.41843
772.9	5537.88959
773.09	5671.2056
773.281	5602.4766
773.471	5646.21621
773.661	5627.47193
773.851	5673.2879
774.041	5437.83926
774.231	5704.51951
774.421	5585.81115
774.611	5694.10956
774.802	5412.8182
774.992	5600.3935
775.182	5352.3367
775.372	5710.7652
775.562	5621.22342
775.752	5577.47786
775.942	5147.80526
776.131	5554.55937
776.321	5431.58431
776.511	5260.53402
776.701	5410.73296
776.891	5537.88959
777.081	5469.11081
777.271	5598.31038
777.461	5335.64868
777.651	5494.12424
777.84	5350.25078
778.03	5233.40183
778.22	5268.88159
778.41	5327.3041
778.599	5225.05267
778.789	5444.09399
778.979	5414.90342
779.169	5546.22467
779.358	5519.13428
779.548	5531.63803
779.738	5402.39177
779.927	5594.14406
780.117	5494.12424
780.307	5327.3041
780.496	5285.57561
780.686	5496.20854
780.875	5283.48894
781.065	5279.31553
781.254	5070.52601
781.444	5419.07378
781.633	5306.44103
781.823	5389.87927
782.012	5343.99288
782.202	5239.66345
782.391	5369.02323
782.581	5210.44074
782.77	5012.02333
782.96	5212.52823
783.149	4993.21505
783.338	5168.68608
783.528	5026.6507
783.717	5147.80526
783.906	4940.96004
784.096	5016.20269
784.285	5022.47157
784.474	5189.56458
784.663	5185.38906
784.853	5053.81281
785.042	5089.32659
785.231	5129.01053
785.42	5026.6507
785.61	5200.00295
785.799	5070.52601
785.988	5099.77054
786.177	4842.68178
786.366	4842.68178
786.555	4917.96328
786.744	5051.72355
786.933	4903.32753
787.122	5204.17814
787.312	4963.95402
787.501	5141.54056
787.69	4922.14471
787.879	4949.32181
788.068	4750.63092
788.257	5051.72355
788.445	4666.91028
788.634	4922.14471
788.823	4476.31242
789.012	4817.58137
789.201	4735.98242
789.39	4735.98242
789.579	4501.45672
789.768	4583.1537
789.957	4725.51852
790.145	4938.86954
790.334	4700.40287
790.523	4876.14388
790.712	4926.32606
790.9	4909.60013
791.089	4602.00205
791.278	4652.25547
791.467	4669.00374
791.655	4859.41356
791.844	4700.40287
792.033	4499.36148
792.221	4453.26069
792.41	4777.83234
792.599	4488.88497
792.787	4836.40698
792.976	4507.7423
793.164	4576.87052
793.353	4474.21692
793.541	4754.81601
793.73	4551.73578
793.918	4687.84382
794.107	4610.37852
794.295	4614.56661
794.484	4717.147
794.672	4612.47258
794.861	4549.64107
795.049	4614.56661
795.238	4350.54356
795.426	4748.53835
795.614	4381.99314
795.803	4430.2063
795.991	4625.03647
796.179	4381.99314
796.368	4440.6859
796.556	4639.69332
796.744	4499.36148
796.932	4752.72347
797.121	4316.99198
797.309	4486.7896
797.497	4373.60706
797.685	4474.21692
797.874	4293.92206
798.062	4520.31286
798.25	4308.60322
798.438	4687.84382
798.626	4451.16495
798.814	4666.91028
799.002	4645.9745
799.19	4505.64713
799.378	4423.91829
799.566	4558.01976
799.755	4165.94193
799.943	4493.07564
800.131	4325.38039
800.318	4312.79764
800.506	4218.40238
800.694	4233.08893
800.882	4071.48001
801.07	4304.40871
801.258	4348.44675
801.446	4495.17094
801.634	4371.51049
801.822	4413.43782
802.01	4356.83387
802.197	4658.53624
802.385	4174.33649
802.573	4539.16721
802.761	4394.5716
802.949	4566.3981
803.136	4272.94715
803.324	4365.22064
803.512	4272.94715
803.699	4409.24548
803.887	4352.64035
804.075	4419.72616
804.262	4300.21411
804.45	4532.88263
804.638	4247.77443
804.825	4444.87758
805.013	4350.54356
805.201	4497.26622
805.388	4461.64344
805.576	4482.59879
805.763	4230.99091
805.951	4428.11032
806.138	4260.36118
806.326	4348.44675
806.513	4298.11678
806.701	4514.02768
806.888	4228.89287
807.075	4356.83387
807.263	4243.57868
807.45	4507.7423
807.638	4306.50597
807.825	4591.53097
808.012	4507.7423
808.2	4587.34238
808.387	4426.01431
808.574	4551.73578
808.761	4308.60322
808.949	4541.26203
809.136	4348.44675
809.323	4526.59784
809.51	4398.76424
809.698	4442.78175
809.885	4180.63219
810.072	4583.1537
810.259	4528.69279
810.446	4549.64107
810.633	4455.35641
810.82	4738.07513
811.008	4428.11032
811.195	4723.42567
811.382	4470.02585
811.569	4639.69332
811.756	4423.91829
811.943	4346.34992
812.13	4474.21692
812.317	4497.26622
812.504	4457.45211
812.691	4612.47258
812.878	4499.36148
813.064	4602.00205
813.251	4490.98031
813.438	4461.64344
813.625	4518.21782
813.812	4467.93028
813.999	4446.97339
814.186	4723.42567
814.372	4249.87228
814.559	4543.35682
814.746	4298.11678
814.933	4346.34992
815.12	4369.41389
815.306	4532.88263
815.493	4419.72616
815.68	4645.9745
815.866	4457.45211
816.053	4595.71947
816.24	4486.7896
816.426	4390.37886
816.613	4241.48077
816.799	4415.53395
816.986	4291.82466
817.173	4340.05929
817.359	4314.89482
817.546	4314.89482
817.732	4113.46831
817.919	4423.91829
818.105	4298.11678
818.292	4319.08911
818.478	4495.17094
818.665	4524.50287
818.851	4365.22064
819.037	4614.56661
819.224	4056.78214
819.41	4331.67148
819.597	4239.38284
819.783	4484.6942
819.969	4245.67657
820.156	4476.31242
820.342	4230.99091
820.528	4706.68209
820.714	4350.54356
820.901	4635.50576
821.087	4249.87228
821.273	4574.77608
821.459	4373.60706
821.646	4645.9745
821.832	4365.22064
822.018	4505.64713
822.204	4323.28332
822.39	4415.53395
822.576	4031.58343
822.762	4283.43487
822.948	4054.68236
823.134	4090.37577
823.32	3989.57901
823.507	4228.89287
823.693	4224.69674
823.879	4306.50597
824.065	4249.87228
824.25	4526.59784
824.436	4090.37577
824.622	4365.22064
824.808	4289.72725
824.994	4390.37886
825.18	3962.27174
825.366	4205.81308
825.552	4069.38037
825.738	4361.02729
825.923	4205.81308
826.109	4409.24548
826.295	4098.77335
826.481	4323.28332
826.667	4121.86497
826.852	4289.72725
827.038	4079.87833
827.224	4398.76424
827.409	4063.08135
827.595	4205.81308
827.781	4046.28304
827.966	4262.45889
828.152	3930.75909
828.338	4316.99198
828.523	3878.22792
828.709	4207.91135
828.894	3794.15212
829.08	4107.1706
829.266	3899.2419
829.451	4098.77335
829.637	3867.72018
829.822	4016.88282
830.008	3815.17404
830.193	4128.16224
830.378	3939.16291
830.564	4069.38037
830.749	3922.35495
830.935	4214.20603
831.12	4027.38336
831.305	4063.08135
831.491	3924.45602
831.676	3794.15212
831.861	3802.56113
832.047	4084.07737
832.232	3777.33318
832.417	4023.1832
832.602	3768.92323
832.788	4073.57962
832.973	3853.00851
833.158	3916.05163
833.343	3869.82177
833.528	3878.22792
833.714	3710.04492
833.899	3922.35495
834.084	3699.52934
834.269	3928.65809
834.454	3575.40962
834.639	3848.805
834.824	3594.34737
835.009	3760.51298
835.194	3634.3221
835.379	3918.15276
835.564	3619.59536
835.749	4052.58256
835.934	3550.15694
836.119	3602.76367
836.304	3533.32034
836.489	3787.84516
836.674	3491.22371
836.859	3731.07463
837.044	3482.80351
837.228	3691.11654
837.413	3617.49146
837.598	3937.06199
837.783	3516.48257
837.968	3634.3221
838.152	3394.37405
838.337	3829.88821
838.522	3583.82659
838.707	3617.49146
838.891	3095.17331
839.076	3676.39338
839.261	3356.46614
839.445	3592.24325
839.63	3373.3148
839.815	3554.3659
839.999	3407.00875
840.184	3508.06324
840.368	3417.53719
840.553	3541.73879
840.737	3293.27378
840.922	3529.11101
841.106	3394.37405
841.291	3564.88799
841.475	3373.3148
841.66	3545.9479
841.844	3171.05869
842.029	3356.46614
842.213	3259.5649
842.397	3444.90903
842.582	3069.8736
842.766	3390.16234
842.951	3071.982
843.135	3411.22018
843.319	3322.76548
843.504	3272.20624
843.688	3124.68676
843.872	3145.76588
844.056	3217.42273
844.241	3476.48817
844.425	3105.71419
844.609	3308.02005
844.793	3162.62802
844.977	3263.77874
845.161	3120.47075
845.346	3333.29741
845.53	2962.32499
845.714	3246.92295
845.898	2892.71392
846.082	3141.55019
846.266	2920.13837
846.45	3101.49789
846.634	2888.49456
846.818	3223.74448
847.002	3112.03852
847.186	3508.06324
847.37	3023.48496
847.554	3232.17325
847.738	3036.13715
847.922	3156.30484
848.106	2943.34174
848.29	3069.8736
848.473	3088.8486
848.657	3128.90272
848.841	2996.06999
849.025	3006.61452
849.209	2960.2158
849.392	3208.9935
849.576	2934.90436
849.76	2913.80987
849.944	2854.7376
850.127	2880.05567
850.311	2816.7567
850.495	3053.00587
850.678	3103.60604
850.862	3143.65804
851.046	3105.71419
851.229	3031.91982
851.413	2770.32952
851.596	3112.03852
851.78	2977.0889
851.964	3074.09038
852.147	3069.8736
852.331	3107.82232
852.514	2745.00283
852.698	2700.67654
852.881	2525.42777
853.065	2831.52759
853.248	2495.85964
853.431	2635.2321
853.615	2493.74755
853.798	2573.99906
853.982	2402.91712
854.165	2641.56596
854.348	2394.46678
854.532	2842.07781
854.715	2552.88187
854.898	2766.10854
855.081	2567.66403
855.265	2829.41751
855.448	2546.54648
855.631	2565.55232
855.814	2421.92979
855.997	2590.89195
856.181	2305.72839
856.364	2540.21099
856.547	2466.28931
856.73	2578.22235
856.913	2500.0838
857.096	2550.77008
857.279	2415.59233
857.462	2567.66403
857.645	2445.16632
857.828	2455.72795
858.011	2487.4112
858.194	2554.99364
858.377	2170.47615
858.56	2445.16632
858.743	2478.96258
858.926	2508.53197
859.109	2276.14511
859.292	2544.43466
859.475	2312.06742
859.658	2538.09914
859.841	2352.21259
860.023	2548.65829
860.206	2227.54011
860.389	2466.28931
860.572	2386.01627
860.755	2419.81731
860.937	2204.29258
861.12	2343.76127
861.303	2250.78658
861.486	2478.96258
861.668	2212.74635
861.851	2145.11245
862.034	2132.43016
862.216	2109.17857
862.399	2081.69824
862.581	2354.3254
862.764	2035.19026
862.947	2373.34019
863.129	2007.7067
863.312	2033.07618
863.494	2134.54389
863.677	2447.27867
863.859	2172.58974
864.042	2295.16314
864.224	2016.1633
864.406	2174.70332
864.589	1885.07497
864.771	2216.97318
864.954	1804.72024
865.136	2170.47615
865.318	1747.62224
865.501	2060.55867
865.683	1870.27331
865.865	2151.45348
866.048	1921.02077
866.23	1988.67897
866.412	1878.73143
866.594	1912.56308
866.777	1927.36399
866.959	2081.69824
867.141	1899.87637
867.323	2007.7067
867.505	1891.41846
867.687	1992.9074
867.869	1743.39264
868.052	1925.24959
868.234	1794.14676
868.416	1878.73143
868.598	1679.94712
868.78	1935.82152
868.962	1584.77425
869.144	1940.05026
869.326	1707.44054
869.508	1857.58598
869.69	1751.85182
869.872	2024.6198
870.054	1840.66926
870.236	1959.07927
870.417	1878.73143
870.599	1895.64743
870.781	1624.95891
870.963	1857.58598
871.145	1813.17895
871.327	1868.15877
871.508	1770.88474
871.69	1897.7619
871.872	1832.21079
872.054	1904.1053
872.235	1718.01479
872.417	1811.06428
872.599	1641.87854
872.78	2045.76055
872.962	1743.39264
873.144	1870.27331
873.325	1684.17691
873.507	1830.09616
873.689	1641.87854
873.87	1819.52294
874.052	1732.8186
874.233	1940.05026
874.415	1669.3726
874.596	1984.45052
874.778	1616.49904
874.959	1635.53369
875.141	1709.55539
875.322	1760.31093
875.503	1694.75133
875.685	1851.24224
875.866	1739.16304
876.048	1751.85182
876.229	1618.61401
876.41	1701.09595
876.592	1572.08423
876.773	1830.09616
876.954	1669.3726
877.136	1753.9666
877.317	1510.74844
877.498	1777.22897
877.679	1534.01385
877.86	1743.39264
878.042	1775.11423
878.223	1971.765
878.404	1690.52157
878.585	1711.67025
878.766	1574.19924
878.947	1760.31093
879.128	1565.7392
879.309	1815.29362
879.49	1701.09595
879.672	1895.64743
879.853	1787.80262
880.034	1739.16304
880.215	1591.11924
880.396	1726.47413
880.576	1796.26147
880.757	1914.67751
880.938	1627.07387
881.119	1895.64743
881.3	1536.12888
881.481	1982.33628
881.662	1737.04823
881.843	1950.62199
882.023	1984.45052
882.204	2003.47836
882.385	1777.22897
882.566	1760.31093
882.747	1658.79801
882.927	1872.38785
883.108	1785.6879
883.289	1918.90636
883.469	1629.18883
883.65	1912.56308
883.831	1669.3726
884.011	1937.93589
884.192	1737.04823
884.373	1836.44003
884.553	1802.60556
884.734	1997.13581
884.914	1762.4257
885.095	1912.56308
885.275	1684.17691
885.456	1857.58598
885.636	1760.31093
885.817	2018.27744
885.997	1737.04823
886.178	1940.05026
886.358	1669.3726
886.538	1895.64743
886.719	1762.4257
886.899	1863.92967
887.08	1802.60556
887.26	1904.1053
887.44	1686.2918
887.621	1980.22204
887.801	1726.47413
887.981	1882.96046
888.161	1720.12963
888.342	1889.30397
888.522	1671.48751
888.702	1895.64743
888.882	1705.32568
889.062	1887.18947
889.242	1726.47413
889.423	1899.87637
889.603	1789.91734
889.783	1916.79194
889.963	1709.55539
890.143	1908.3342
890.323	1749.73703
890.503	1921.02077
890.683	1838.55465
890.863	1931.59277
891.043	1728.58895
891.223	1830.09616
891.403	1802.60556
891.583	2041.53246
891.763	1811.06428
891.943	1990.79319
892.122	1660.91294
892.302	1971.765
892.482	1821.63759
892.662	1959.07927
892.842	1711.67025
893.022	1948.50765
893.201	1772.99949
893.381	1961.19357
893.561	1745.50744
893.741	1866.04422
893.92	1726.47413
894.1	1866.04422
894.28	1586.88925
894.459	1637.64864
894.639	1667.25769
894.819	1789.91734
894.998	1493.82808
895.178	1633.41874
895.357	1542.47397
895.537	1650.33829
895.716	1648.22336
895.896	1794.14676
896.075	1724.3593
896.255	1777.22897
896.434	1614.38407
896.614	1912.56308
896.793	1616.49904
896.973	1631.30379
897.152	1466.33243
897.331	1561.50917
897.511	1417.68625
897.69	1614.38407
897.87	1451.52707
898.049	1519.2086
898.228	1379.61547
898.407	1421.91635
898.587	1350.00508
898.766	1457.87222
898.945	1455.75717
899.124	1506.51835
899.304	1350.00508
899.483	1565.7392
899.662	1227.33715
899.841	1320.39495
900.02	1246.3713
900.199	1358.46517
900.378	1261.1758
900.557	1337.31498
900.737	1362.69522
900.916	1347.89006
901.095	1136.4
901.274	1320.39495
901.453	1172.35107
901.632	1153.318
901.811	1134.28527
901.989	1227.33715
902.168	1058.1581
902.347	1273.86547
902.526	1051.81447
902.705	1170.23627
902.884	1134.28527
903.063	1246.3713
903.242	1125.82639
903.42	1297.13008
903.599	1032.78388
903.778	1275.98042
903.957	1121.59697
904.135	1159.66232
904.314	1083.5331
904.493	1007.41052
904.672	916.49708
904.85	1049.69993
905.029	918.61119
905.207	1034.89837
905.386	1026.44046
905.565	1100.45018
905.743	783.32462
905.922	939.75276
906.1	939.75276
906.279	982.03805
906.457	876.33038
906.636	1041.24186
906.814	872.10247
906.993	937.63857
907.171	1077.18928
907.35	969.35217
907.528	791.77895
907.707	825.5978
907.885	776.98398
908.063	927.06773
908.242	802.34708
908.42	793.89256
908.598	798.1198
908.777	707.24295
908.955	722.03554
909.133	872.10247
909.311	694.56402
909.49	770.64342
909.668	677.6594
909.846	840.39428
910.024	757.96258
910.202	914.38297
910.38	753.73571
910.559	861.53286
910.737	688.2247
910.915	812.91545
911.093	855.19119
911.271	922.83945
911.449	643.8524
911.627	867.8746
911.805	662.86847
911.983	722.03554
912.161	679.77244
912.339	1020.09709
912.517	812.91545
912.695	783.32462
912.872	762.18949
913.05	893.24232
913.228	787.55177
913.406	960.89506
913.584	863.64677
913.762	901.69849
913.939	753.73571
914.117	779.09752
914.295	796.00618
914.473	821.37031
914.65	836.16667
914.828	867.8746
915.006	804.46074
915.184	973.58077
915.361	673.43336
915.539	806.5744
915.716	629.0628
915.894	804.46074
916.072	815.02915
916.249	844.62192
916.427	755.84914
916.604	791.77895
916.782	703.0166
916.959	829.82532
917.137	694.56402
917.314	821.37031
917.492	601.59802
917.669	757.96258
917.847	563.57345
918.024	673.43336
918.201	669.20737
918.379	662.86847
918.556	610.0485
918.733	707.24295
918.911	542.45056
919.088	711.46935
919.265	538.22615
919.442	683.99855
919.62	601.59802
919.797	760.07603
919.974	576.24783
920.151	681.88549
920.328	597.37286
920.506	671.32036
920.683	534.00179
920.86	654.41676
921.037	540.33835
921.214	527.66536
921.391	504.43287
921.568	620.61188
921.745	538.22615
921.922	631.17557
922.099	607.93586
922.276	603.71062
922.453	491.76134
922.63	521.32906
922.807	534.00179
922.984	470.64331
923.161	415.74358
923.338	483.31395
923.514	559.34876
923.691	584.69769
923.868	426.3004
924.045	495.98513
924.222	525.55324
924.399	491.76134
924.575	457.97321
924.752	483.31395
924.929	464.30819
925.105	620.61188
925.282	472.75504
925.459	466.41988
925.635	576.24783
925.812	519.21698
925.989	468.53159
926.165	398.85351
926.342	500.20897
926.518	550.89955
926.695	381.9645
926.871	441.0806
927.048	407.29842
927.224	517.10492
927.401	426.3004
927.577	479.09034
927.754	333.4146
927.93	400.96472
928.107	301.75662
928.283	373.52039
928.459	398.85351
928.636	392.52001
928.812	322.8615
928.988	375.63139
929.165	346.07892
929.341	443.19213
929.517	297.53586
929.693	343.96815
929.87	354.52214
930.046	392.52001
930.222	398.85351
930.398	348.18969
930.574	343.96815
930.751	331.30395
930.927	365.07655
931.103	356.63299
931.279	270.10273
931.455	392.52001
931.631	257.44235
931.807	365.07655
931.983	365.07655
932.159	331.30395
932.335	204.69824
932.511	221.57502
932.687	246.89255
932.863	327.08269
933.039	240.56291
933.215	284.87402
933.391	213.13647
933.566	219.46535
933.742	234.23344
933.918	139.31302
934.094	246.89255
934.27	162.51195
934.445	126.66015
934.621	179.38548
934.797	166.73021
934.973	170.94855
935.148	263.77245
935.324	238.45306
935.5	175.16697
935.675	141.42191
935.851	200.47924
936.027	192.04149
936.202	154.07568
936.378	170.94855
936.553	120.334
936.729	120.334
936.904	86.59788
937.08	103.46523
937.255	78.16474
937.431	145.63975
937.606	86.59788
937.782	65.5157
937.957	86.59788
938.133	99.24826
938.308	14.92785
938.483	82.38126
938.659	107.68229
938.834	46.54368
939.009	84.48956
939.185	86.59788
939.36	103.46523
939.535	141.42191
939.71	44.4358
939.886	103.46523
940.061	101.35674
940.236	52.86748
940.411	147.7487
940.586	2.283
940.761	57.08346
940.937	78.16474
941.112	8.60532
941.287	52.86748
941.462	111.89944
941.637	52.86748
941.812	52.86748
941.987	145.63975
942.162	48.65159
942.337	82.38126
942.512	52.86748
942.687	95.03138
942.862	46.54368
943.037	19.14299
943.212	63.4076
943.386	42.32793
943.561	80.27299
943.736	33.89672
943.911	54.97546
944.086	78.16474
944.26	50.75953
944.435	80.27299
944.61	90.81458
944.785	73.9483
944.959	54.97546
945.134	82.38126
945.309	73.9483
945.483	69.73195
945.658	114.00805
945.833	130.87769
946.007	12.82031
946.182	-4.03909
946.357	114.00805
946.531	57.08346
946.706	48.65159
946.88	31.78897
947.055	36.00449
947.229	21.25059
947.404	80.27299
947.578	65.5157
947.752	80.27299
947.927	-14.57544
948.101	19.14299
948.276	61.29953
948.45	84.48956
948.624	59.19149
948.799	52.86748
948.973	61.29953
949.147	61.29953
949.321	21.25059
949.496	71.84011
949.67	107.68229
949.844	99.24826
950.018	36.00449
950.193	29.68125
950.367	57.08346
950.541	36.00449
950.715	40.22009
950.889	36.00449
951.063	4.39042
951.237	103.46523
951.411	107.68229
951.585	88.70622
951.759	29.68125
951.933	105.57375
952.107	82.38126
952.281	-1.93175
952.455	52.86748
952.629	31.78897
952.803	36.00449
952.977	103.46523
953.151	69.73195
953.325	63.4076
953.499	42.32793
953.672	36.00449
953.846	31.78897
954.02	10.7128
954.194	44.4358
954.368	69.73195
954.541	52.86748
954.715	97.13981
954.889	48.65159
955.062	103.46523
955.236	101.35674
955.41	40.22009
955.583	46.54368
955.757	69.73195
955.93	57.08346
956.104	46.54368
956.278	44.4358
956.451	124.55141
956.625	48.65159
956.798	57.08346
956.972	4.39042
957.145	95.03138
957.319	44.4358
957.492	63.4076
957.665	118.22533
957.839	19.14299
958.012	73.9483
958.185	36.00449
958.359	63.4076
958.532	111.89944
958.705	12.82031
958.879	99.24826
959.052	86.59788
959.225	12.82031
959.398	14.92785
959.572	38.11228
959.745	36.00449
959.918	78.16474
960.091	88.70622
960.264	95.03138
960.438	65.5157
960.611	103.46523
960.784	36.00449
960.957	103.46523
961.13	27.57355
961.303	82.38126
961.476	19.14299
961.649	36.00449
961.822	54.97546
961.995	44.4358
962.168	65.5157
962.341	48.65159
962.514	-20.89695
962.686	27.57355
962.859	19.14299
963.032	69.73195
963.205	44.4358
963.378	57.08346
963.551	44.4358
963.723	6.49786
963.896	82.38126
964.069	78.16474
964.242	48.65159
964.414	97.13981
964.587	57.08346
964.76	67.62381
964.932	71.84011
965.105	31.78897
965.278	99.24826
965.45	-12.46822
965.623	31.78897
965.795	78.16474
965.968	103.46523
966.14	65.5157
966.313	46.54368
966.485	69.73195
966.658	19.14299
966.83	63.4076
967.003	73.9483
967.175	69.73195
967.348	38.11228
967.52	67.62381
967.692	101.35674
967.865	17.0354
968.037	25.46587
968.209	92.92297
968.382	29.68125
968.554	19.14299
968.726	44.4358
968.898	17.0354
969.071	17.0354
969.243	50.75953
969.415	4.39042
969.587	99.24826
969.759	38.11228
969.932	65.5157
970.104	38.11228
970.276	120.334
970.448	23.35822
970.62	0.17561
970.792	-27.21824
970.964	36.00449
971.136	103.46523
971.308	52.86748
971.48	97.13981
971.652	65.5157
971.824	-63.03467
971.996	103.46523
972.168	103.46523
972.339	23.35822
972.511	61.29953
972.683	44.4358
972.855	27.57355
973.027	88.70622
973.199	61.29953
973.37	27.57355
973.542	23.35822
973.714	67.62381
973.886	61.29953
974.057	36.00449
974.229	38.11228
974.401	44.4358
974.572	44.4358
974.744	-8.2537
974.915	14.92785
975.087	4.39042
975.259	38.11228
975.43	38.11228
975.602	48.65159
975.773	90.81458
975.945	8.60532
976.116	63.4076
976.288	154.07568
976.459	-23.00407
976.63	44.4358
976.802	21.25059
976.973	-6.14641
977.145	50.75953
977.316	4.39042
977.487	4.39042
977.659	48.65159
977.83	50.75953
978.001	59.19149
978.172	31.78897
978.344	46.54368
978.515	-12.46822
978.686	82.38126
978.857	48.65159
979.028	82.38126
979.2	10.7128
979.371	48.65159
979.542	19.14299
979.713	27.57355
979.884	12.82031
980.055	10.7128
980.226	10.7128
980.397	107.68229
980.568	10.7128
980.739	36.00449
980.91	54.97546
981.081	-35.64629
981.252	99.24826
981.423	8.60532
981.594	46.54368
981.765	105.57375
981.936	2.283
982.106	36.00449
982.277	120.334
982.448	-35.64629
982.619	27.57355
982.79	61.29953
982.96	82.38126
983.131	19.14299
983.302	42.32793
983.472	-35.64629
983.643	6.49786
983.814	-1.93175
983.984	40.22009
984.155	-1.93175
984.326	61.29953
984.496	-4.03909
984.667	19.14299
984.837	61.29953
985.008	44.4358
985.178	31.78897
985.349	4.39042
985.519	52.86748
985.69	78.16474
985.86	6.49786
986.031	36.00449
986.201	-14.57544
986.371	78.16474
986.542	10.7128
986.712	67.62381
986.882	-29.32529
987.053	57.08346
987.223	10.7128
987.393	10.7128
987.563	-46.18078
987.734	2.283
987.904	-1.93175
988.074	38.11228
988.244	46.54368
988.414	12.82031
988.585	63.4076
988.755	31.78897
988.925	88.70622
989.095	103.46523
989.265	44.4358
989.435	19.14299
989.605	57.08346
989.775	27.57355
989.945	-35.64629
990.115	12.82031
990.285	29.68125
990.455	-23.00407
990.625	-6.14641
990.795	4.39042
990.965	-20.89695
991.134	2.283
991.304	19.14299
991.474	-25.11117
991.644	-86.2061
991.814	40.22009
991.984	65.5157
992.153	-31.43231
992.323	52.86748
992.493	6.49786
992.662	-14.57544
992.832	38.11228
993.002	23.35822
993.171	63.4076
993.341	-23.00407
993.511	19.14299
993.68	-18.7898
993.85	65.5157
994.019	36.00449
994.189	12.82031
994.358	38.11228
994.528	-18.7898
994.697	17.0354
994.867	21.25059
995.036	-20.89695
995.206	-23.00407
995.375	90.81458
995.544	10.7128
995.714	-1.93175
995.883	105.57375
996.052	2.283
996.222	73.9483
996.391	-14.57544
996.56	-8.2537
996.73	6.49786
996.899	63.4076
997.068	-18.7898
997.237	-29.32529
997.406	61.29953
997.576	-33.53931
997.745	25.46587
997.914	-12.46822
998.083	14.92785
998.252	0.17561
998.421	40.22009
998.59	10.7128
998.759	71.84011
998.928	12.82031
999.097	78.16474
999.266	-39.86016
999.435	73.9483
999.604	31.78897
999.773	69.73195
999.942	27.57355
1000.111	-77.78048
1000.28	-46.18078
1000.448	54.97546
1000.617	19.14299
1000.786	73.9483
1000.955	19.14299
1001.124	69.73195
1001.292	-10.36097
1001.461	23.35822
1001.63	42.32793
1001.798	78.16474
1001.967	-27.21824
1002.136	12.82031
1002.304	10.7128
1002.473	61.29953
1002.642	-4.03909
1002.81	61.29953
1002.979	-1.93175
1003.147	-23.00407
1003.316	90.81458
1003.484	78.16474
1003.653	38.11228
1003.821	-29.32529
1003.99	-69.35446
1004.158	21.25059
1004.327	65.5157
1004.495	25.46587
1004.663	-39.86016
1004.832	6.49786
1005	48.65159
1005.168	-25.11117
1005.337	36.00449
1005.505	-14.57544
1005.673	27.57355
1005.842	-31.43231
1006.01	40.22009
1006.178	31.78897
1006.346	12.82031
1006.514	25.46587
1006.683	65.5157
1006.851	40.22009
1007.019	52.86748
1007.187	-6.14641
1007.355	23.35822
1007.523	-29.32529
1007.691	-35.64629
1007.859	-35.64629
1008.027	21.25059
1008.195	2.283
1008.363	44.4358
1008.531	2.283
1008.699	36.00449
1008.867	38.11228
1009.035	82.38126
1009.203	48.65159
1009.37	52.86748
1009.538	73.9483
1009.706	36.00449
1009.874	-63.03467
1010.042	-54.60793
1010.209	86.59788
1010.377	6.49786
1010.545	14.92785
1010.713	-29.32529
1010.88	10.7128
1011.048	-1.93175
1011.216	-6.14641
1011.383	21.25059
1011.551	23.35822
1011.718	71.84011
1011.886	52.86748
1012.054	-12.46822
1012.221	-37.75323
1012.389	46.54368
1012.556	-44.07393
1012.724	86.59788
1012.891	-39.86016
1013.058	2.283
1013.226	14.92785
1013.393	-6.14641
1013.561	17.0354
1013.728	-4.03909
1013.895	4.39042
1014.063	36.00449
1014.23	25.46587
1014.397	8.60532
1014.565	54.97546
1014.732	-23.00407
1014.899	-18.7898
1015.066	-46.18078
1015.233	2.283
1015.401	29.68125
1015.568	-56.71465
1015.735	2.283
1015.902	-10.36097
1016.069	-1.93175
1016.236	10.7128
1016.403	12.82031
1016.57	-29.32529
1016.737	61.29953
1016.904	-12.46822
1017.071	21.25059
1017.238	-44.07393
1017.405	38.11228
1017.572	6.49786
1017.739	-16.68263
1017.906	6.49786
1018.073	27.57355
1018.24	12.82031
1018.407	12.82031
1018.573	19.14299
1018.74	27.57355
1018.907	36.00449
1019.074	69.73195
1019.241	36.00449
1019.407	71.84011
1019.574	-71.461
1019.741	-23.00407
1019.907	-16.68263
1020.074	19.14299
1020.241	61.29953
1020.407	-35.64629
1020.574	69.73195
1020.74	17.0354
1020.907	-1.93175
1021.073	99.24826
1021.24	50.75953
1021.406	-1.93175
1021.573	52.86748
1021.739	4.39042
1021.906	-27.21824
1022.072	48.65159
1022.239	-23.00407
1022.405	10.7128
1022.571	52.86748
1022.738	71.84011
1022.904	65.5157
1023.07	65.5157
1023.237	69.73195
1023.403	25.46587
1023.569	8.60532
1023.735	-33.53931
1023.902	-52.50118
1024.068	-31.43231
1024.234	52.86748
1024.4	14.92785
1024.566	4.39042
1024.732	-12.46822
1024.898	-18.7898
1025.065	-31.43231
1025.231	-37.75323
1025.397	-14.57544
1025.563	-63.03467
1025.729	46.54368
1025.895	76.05651
1026.061	27.57355
1026.227	-27.21824
1026.392	21.25059
1026.558	63.4076
1026.724	44.4358
1026.89	10.7128
1027.056	10.7128
1027.222	-33.53931
1027.388	69.73195
1027.553	-73.56752
1027.719	-20.89695
1027.885	-18.7898
1028.051	-39.86016
1028.216	-63.03467
1028.382	97.13981
1028.548	52.86748
1028.713	-27.21824
1028.879	59.19149
1029.045	19.14299
1029.21	-29.32529
1029.376	10.7128
1029.541	-39.86016
1029.707	52.86748
1029.873	4.39042
1030.038	-18.7898
1030.204	-86.2061
1030.369	69.73195
1030.534	-23.00407
1030.7	50.75953
1030.865	6.49786
1031.031	6.49786
1031.196	-65.14129
1031.361	19.14299
1031.527	38.11228
1031.692	14.92785
1031.857	19.14299
1032.023	-29.32529
1032.188	52.86748
1032.353	27.57355
1032.518	54.97546
1032.684	-46.18078
1032.849	-12.46822
1033.014	-31.43231
1033.179	-46.18078
1033.344	-29.32529
1033.509	44.4358
1033.674	12.82031
1033.839	40.22009
1034.004	69.73195
1034.17	38.11228
1034.335	78.16474
1034.5	78.16474
1034.664	-1.93175
1034.829	-52.50118
1034.994	8.60532
1035.159	31.78897
1035.324	4.39042
1035.489	-1.93175
1035.654	-14.57544
1035.819	-8.2537
1035.984	-6.14641
1036.148	-4.03909
1036.313	76.05651
1036.478	40.22009
1036.643	44.4358
1036.807	40.22009
1036.972	-6.14641
1037.137	44.4358
1037.301	-6.14641
1037.466	-71.461
1037.631	44.4358
1037.795	19.14299
1037.96	-14.57544
1038.124	-37.75323
1038.289	27.57355
1038.454	-39.86016
1038.618	54.97546
1038.783	-20.89695
1038.947	19.14299
1039.111	36.00449
1039.276	44.4358
1039.44	52.86748
1039.605	-20.89695
1039.769	4.39042
1039.933	23.35822
1040.098	52.86748
1040.262	-48.28761
1040.426	-25.11117
1040.591	44.4358
1040.755	10.7128
1040.919	-27.21824
1041.083	21.25059
1041.248	-37.75323
1041.412	78.16474
1041.576	4.39042
1041.74	2.283
1041.904	-23.00407
1042.068	19.14299
1042.232	6.49786
1042.397	-20.89695
1042.561	8.60532
1042.725	-18.7898
1042.889	-14.57544
1043.053	101.35674
1043.217	54.97546
1043.381	27.57355
1043.544	63.4076
1043.708	23.35822
1043.872	-6.14641
1044.036	27.57355
1044.2	-20.89695
1044.364	19.14299
1044.528	-31.43231
1044.691	-1.93175
1044.855	21.25059
1045.019	17.0354
1045.183	2.283
1045.346	71.84011
1045.51	-37.75323
1045.674	-4.03909
1045.837	29.68125
1046.001	12.82031
1046.165	10.7128
1046.328	59.19149
1046.492	-18.7898
1046.655	29.68125
1046.819	27.57355
1046.983	-39.86016
1047.146	12.82031
1047.31	-20.89695
1047.473	19.14299
1047.636	-73.56752
1047.8	95.03138
1047.963	50.75953
1048.127	-58.82135
1048.29	2.283
