Data from mixed_try1_USB4F045381__35__00057.txt Node

Date: Thu Apr 03 19:37:53 EDT 2025
User: mmckonesweet
Spectrometer: USB4F04538
Trigger mode: 4
Integration Time (sec): 2.700000E-3
Scans to average: 1
Electric dark correction enabled: true
Nonlinearity correction enabled: true
Boxcar width: 0
XAxis mode: Wavelengths
Number of Pixels in Spectrum: 3648
>>>>>Begin Spectral Data<<<<<
345.52	-6.67324
345.736	-6.67324
345.952	-6.67324
346.168	24.93896
346.384	-44.60065
346.6	33.36978
346.816	-15.10224
347.032	-25.63794
347.248	22.83131
347.464	-80.41353
347.68	31.26204
347.896	-48.81431
348.112	43.90883
348.328	52.34049
348.544	-21.42373
348.76	18.61609
348.975	-10.88778
349.191	-23.53085
349.407	-2.45859
349.623	-12.99502
349.839	5.97099
350.055	-0.35123
350.27	-31.95906
350.486	-10.88778
350.702	-0.35123
350.918	12.29343
351.133	14.40096
351.349	18.61609
351.565	24.93896
351.781	27.04663
351.996	39.69314
352.212	-2.45859
352.428	20.72369
352.644	18.61609
352.859	-21.42373
353.075	-40.38689
353.291	-0.35123
353.506	-8.78052
353.722	48.12461
353.938	-19.31659
354.153	5.97099
354.369	10.18593
354.584	-34.06606
354.8	-6.67324
355.016	-44.60065
355.231	10.18593
355.447	5.97099
355.662	64.98867
355.878	58.66448
356.093	-23.53085
356.309	-27.74501
356.524	20.72369
356.74	33.36978
356.955	14.40096
357.171	27.04663
357.386	22.83131
357.602	24.93896
357.817	-29.85205
358.033	-31.95906
358.248	-40.38689
358.464	48.12461
358.679	14.40096
358.895	-4.56592
359.11	5.97099
359.325	12.29343
359.541	-19.31659
359.756	-0.35123
359.972	-2.45859
360.187	29.15432
360.402	18.61609
360.618	20.72369
360.833	14.40096
361.048	41.80097
361.264	8.07845
361.479	31.26204
361.694	22.83131
361.909	31.26204
362.125	92.39587
362.34	64.98867
362.555	31.26204
362.77	8.07845
362.986	48.12461
363.201	48.12461
363.416	-42.49378
363.631	14.40096
363.847	-2.45859
364.062	8.07845
364.277	-15.10224
364.492	58.66448
364.707	-12.99502
364.922	5.97099
365.138	31.26204
365.353	-42.49378
365.568	35.47754
365.783	-0.35123
365.998	33.36978
366.213	-19.31659
366.428	-23.53085
366.643	24.93896
366.858	-36.17303
367.073	58.66448
367.288	-61.45468
367.503	64.98867
367.718	92.39587
367.933	31.26204
368.148	-27.74501
368.363	33.36978
368.578	39.69314
368.793	-8.78052
369.008	73.42125
369.223	22.83131
369.438	-23.53085
369.653	14.40096
369.868	-2.45859
370.083	88.17913
370.298	-19.31659
370.513	-36.17303
370.728	79.74592
370.943	-8.78052
371.157	-34.06606
371.372	62.88058
371.587	-65.66794
371.802	-27.74501
372.017	8.07845
372.232	58.66448
372.446	-31.95906
372.661	39.69314
372.876	-10.88778
373.091	5.97099
373.306	73.42125
373.52	62.88058
373.735	24.93896
373.95	-8.78052
374.165	-44.60065
374.379	-50.9211
374.594	-78.3071
374.809	-4.56592
375.023	-15.10224
375.238	105.04662
375.453	-8.78052
375.667	31.26204
375.882	5.97099
376.097	27.04663
376.311	43.90883
376.526	33.36978
376.741	-8.78052
376.955	-82.51994
377.17	48.12461
377.384	-19.31659
377.599	-2.45859
377.813	54.44846
378.028	-50.9211
378.242	58.66448
378.457	10.18593
378.672	56.55646
378.886	-44.60065
379.101	64.98867
379.315	58.66448
379.53	-36.17303
379.744	31.26204
379.958	77.63768
380.173	-61.45468
380.387	14.40096
380.602	-10.88778
380.816	60.77252
381.031	-53.02787
381.245	-6.67324
381.459	48.12461
381.674	18.61609
381.888	-31.95906
382.103	8.07845
382.317	10.18593
382.531	-48.81431
382.746	14.40096
382.96	-27.74501
383.174	5.97099
383.388	-2.45859
383.603	48.12461
383.817	56.55646
384.031	-27.74501
384.246	33.36978
384.46	18.61609
384.674	18.61609
384.888	-0.35123
385.103	31.26204
385.317	22.83131
385.531	14.40096
385.745	39.69314
385.959	-23.53085
386.174	-23.53085
386.388	-15.10224
386.602	-0.35123
386.816	-12.99502
387.03	37.58533
387.244	52.34049
387.458	-6.67324
387.672	22.83131
387.887	73.42125
388.101	-44.60065
388.315	-8.78052
388.529	-12.99502
388.743	-27.74501
388.957	5.97099
389.171	-44.60065
389.385	10.18593
389.599	16.50851
389.813	5.97099
390.027	56.55646
390.241	14.40096
390.455	35.47754
390.669	56.55646
390.883	-19.31659
391.097	14.40096
391.311	5.97099
391.525	16.50851
391.738	12.29343
391.952	-0.35123
392.166	-36.17303
392.38	14.40096
392.594	8.07845
392.808	83.96248
393.022	14.40096
393.236	62.88058
393.449	-38.27997
393.663	-6.67324
393.877	5.97099
394.091	14.40096
394.305	5.97099
394.518	56.55646
394.732	48.12461
394.946	1.75615
395.16	14.40096
395.373	81.85419
395.587	10.18593
395.801	31.26204
396.015	14.40096
396.228	33.36978
396.442	22.83131
396.656	56.55646
396.869	-2.45859
397.083	-0.35123
397.297	22.83131
397.51	-69.8811
397.724	-46.70749
397.938	64.98867
398.151	16.50851
398.365	62.88058
398.578	48.12461
398.792	-23.53085
399.005	-19.31659
399.219	-27.74501
399.433	-19.31659
399.646	8.07845
399.86	52.34049
400.073	-8.78052
400.287	81.85419
400.5	48.12461
400.714	39.69314
400.927	29.15432
401.141	-23.53085
401.354	24.93896
401.567	-17.20943
401.781	73.42125
401.994	-10.88778
402.208	24.93896
402.421	24.93896
402.635	5.97099
402.848	-4.56592
403.061	22.83131
403.275	12.29343
403.488	8.07845
403.701	-27.74501
403.915	-59.34802
404.128	-0.35123
404.341	60.77252
404.555	37.58533
404.768	-27.74501
404.981	8.07845
405.195	37.58533
405.408	48.12461
405.621	-25.63794
405.834	-65.66794
406.048	-4.56592
406.261	33.36978
406.474	31.26204
406.687	-10.88778
406.9	33.36978
407.114	-57.24133
407.327	39.69314
407.54	-6.67324
407.753	8.07845
407.966	-71.98763
408.179	58.66448
408.392	52.34049
408.605	37.58533
408.819	20.72369
409.032	48.12461
409.245	31.26204
409.458	43.90883
409.671	98.72115
409.884	5.97099
410.097	-6.67324
410.31	39.69314
410.523	-10.88778
410.736	-69.8811
410.949	22.83131
411.162	-12.99502
411.375	22.83131
411.588	81.85419
411.801	14.40096
412.014	109.26371
412.227	56.55646
412.44	100.82962
412.653	-0.35123
412.865	-44.60065
413.078	35.47754
413.291	52.34049
413.504	35.47754
413.717	-2.45859
413.93	3.86356
414.143	48.12461
414.356	60.77252
414.568	8.07845
414.781	31.26204
414.994	50.23254
415.207	10.18593
415.42	-53.02787
415.632	33.36978
415.845	54.44846
416.058	-10.88778
416.271	48.12461
416.483	18.61609
416.696	64.98867
416.909	-6.67324
417.121	35.47754
417.334	52.34049
417.547	-0.35123
417.759	86.0708
417.972	8.07845
418.185	-8.78052
418.397	27.04663
418.61	22.83131
418.823	39.69314
419.035	-27.74501
419.248	8.07845
419.46	-19.31659
419.673	-10.88778
419.885	-10.88778
420.098	31.26204
420.311	22.83131
420.523	43.90883
420.736	109.26371
420.948	73.42125
421.161	-0.35123
421.373	27.04663
421.586	48.12461
421.798	64.98867
422.01	33.36978
422.223	64.98867
422.435	67.09678
422.648	24.93896
422.86	56.55646
423.073	-36.17303
423.285	43.90883
423.497	41.80097
423.71	24.93896
423.922	16.50851
424.134	-38.27997
424.347	8.07845
424.559	-48.81431
424.771	64.98867
424.984	31.26204
425.196	107.15516
425.408	64.98867
425.621	-40.38689
425.833	-38.27997
426.045	73.42125
426.257	75.52945
426.47	50.23254
426.682	48.12461
426.894	58.66448
427.106	-71.98763
427.318	37.58533
427.531	-55.13461
427.743	64.98867
427.955	69.20492
428.167	69.20492
428.379	83.96248
428.591	-2.45859
428.804	94.50427
429.016	58.66448
429.228	58.66448
429.44	20.72369
429.652	22.83131
429.864	46.01671
430.076	64.98867
430.288	56.55646
430.5	-17.20943
430.712	81.85419
430.924	58.66448
431.136	-19.31659
431.348	24.93896
431.56	107.15516
431.772	18.61609
431.984	24.93896
432.196	60.77252
432.408	60.77252
432.62	48.12461
432.832	-40.38689
433.044	126.13296
433.256	43.90883
433.468	43.90883
433.679	56.55646
433.891	58.66448
434.103	71.31307
434.315	90.28749
434.527	90.28749
434.739	46.01671
434.95	98.72115
435.162	67.09678
435.374	58.66448
435.586	81.85419
435.798	52.34049
436.009	88.17913
436.221	52.34049
436.433	96.6127
436.645	31.26204
436.856	90.28749
437.068	83.96248
437.28	105.04662
437.491	81.85419
437.703	161.98467
437.915	88.17913
438.126	62.88058
438.338	90.28749
438.55	64.98867
438.761	33.36978
438.973	107.15516
439.184	100.82962
439.396	43.90883
439.608	105.04662
439.819	64.98867
440.031	81.85419
440.242	58.66448
440.454	115.58952
440.665	90.28749
440.877	134.5681
441.088	54.44846
441.3	134.5681
441.511	115.58952
441.723	39.69314
441.934	86.0708
442.146	33.36978
442.357	115.58952
442.569	67.09678
442.78	102.93811
442.991	77.63768
443.203	111.37229
443.414	134.5681
443.626	117.69816
443.837	86.0708
444.048	199.95188
444.26	149.33043
444.471	75.52945
444.682	102.93811
444.894	31.26204
445.105	98.72115
445.316	115.58952
445.528	126.13296
445.739	48.12461
445.95	117.69816
446.161	178.85816
446.373	151.43941
446.584	124.02423
446.795	109.26371
447.006	86.0708
447.217	149.33043
447.429	73.42125
447.64	126.13296
447.851	153.54842
448.062	145.11251
448.273	140.89469
448.484	138.7858
448.695	246.36508
448.907	145.11251
449.118	109.26371
449.329	168.31207
449.54	159.87558
449.751	132.45929
449.962	134.5681
450.173	216.8283
450.384	117.69816
450.595	180.96744
450.806	170.42125
451.017	107.15516
451.228	153.54842
451.439	164.09378
451.65	107.15516
451.861	115.58952
452.072	244.25518
452.283	132.45929
452.494	143.00359
452.705	134.5681
452.915	235.81579
453.126	221.0476
453.337	151.43941
453.548	305.44984
453.759	193.62355
453.97	216.8283
454.181	223.15728
454.391	185.18606
454.602	132.45929
454.813	259.02486
455.024	235.81579
455.235	172.53045
455.445	286.45672
455.656	218.93794
455.867	320.22329
456.078	136.67694
456.288	191.51415
456.499	294.89792
456.71	385.65888
456.921	240.03545
457.131	391.99222
457.342	252.69488
457.553	353.99443
457.763	214.71868
457.974	438.44123
458.184	259.02486
458.395	275.90563
458.606	318.11274
458.816	343.44047
459.027	410.99314
459.237	320.22329
459.448	364.54882
459.659	305.44984
459.869	406.7706
460.08	375.10364
460.29	427.88395
460.501	419.43842
460.711	375.10364
460.922	444.77578
461.132	368.7707
461.343	394.10337
461.553	444.77578
461.764	522.91312
461.974	446.88733
462.184	499.68099
462.395	482.78599
462.605	630.64738
462.816	537.6981
463.026	489.12151
463.236	398.32572
463.447	533.47375
463.657	512.35284
463.867	757.43422
464.078	611.63298
464.288	617.971
464.498	632.76015
464.709	590.50708
464.919	632.76015
465.129	748.98054
465.339	776.4556
465.55	708.82785
465.76	672.90511
465.97	736.30033
466.18	827.18311
466.391	958.25223
466.601	774.34207
466.811	903.28403
467.021	913.85444
467.231	1021.68293
467.441	808.15966
467.651	937.11002
467.862	1066.0877
468.072	1131.64186
468.282	1028.02631
468.492	903.28403
468.702	1011.11074
468.912	1205.65967
469.122	1104.15084
469.332	1319.8662
469.542	1260.64707
469.752	1360.05143
469.962	1296.60134
470.172	1495.41436
470.382	1541.94521
470.592	1412.92739
470.802	1357.93641
471.012	1594.82048
471.222	1444.65315
471.432	1586.3605
471.642	1649.80956
471.852	1871.85921
472.062	1711.14153
472.272	1918.37775
472.482	1611.74035
472.691	1886.66085
472.901	1854.94276
473.111	1903.57668
473.321	1939.52167
473.531	2155.15239
473.741	1996.60726
473.95	2372.81202
474.16	1960.665
474.37	2377.03742
474.58	2469.98572
474.79	2442.52587
474.999	2516.45197
475.209	2372.81202
475.419	2450.97525
475.628	2630.48163
475.838	2393.93863
476.048	2807.78833
476.258	2702.25972
476.467	3098.86266
476.677	2930.15822
476.886	3261.1451
477.096	3025.06651
477.306	3288.53373
477.515	2913.28249
477.725	3362.25799
477.935	3328.55809
478.144	3438.06635
478.354	3176.85463
478.563	3572.77926
478.773	3419.11641
478.982	3503.32724
479.192	3614.86157
479.401	3881.90551
479.611	3841.97412
479.82	3806.23997
480.03	3682.17759
480.239	4016.35778
480.449	3816.7506
480.658	4102.44719
480.868	4287.10545
481.077	4318.56483
481.287	4373.08292
481.496	4503.02813
481.705	4415.00992
481.915	4645.45107
482.124	4544.9279
482.333	4896.53198
482.543	4704.06577
482.752	4982.24269
482.961	5034.48632
483.171	5122.22308
483.38	4865.16477
483.589	5082.53771
483.799	5021.94917
484.008	5351.81522
484.217	5132.66521
484.426	5226.61817
484.636	5451.91211
484.845	5664.43798
485.054	5381.01574
485.263	5676.93186
485.472	5551.95482
485.682	5895.43729
485.891	5664.43798
486.1	5812.22781
486.309	5903.75616
486.518	5876.71845
486.727	6101.21852
486.936	6414.64354
487.146	6022.25909
487.355	6157.30064
487.564	6346.19222
487.773	6572.19269
487.982	6331.66898
488.191	6487.21572
488.4	6433.30768
488.609	6584.62508
488.818	6464.41039
489.027	6744.10048
489.236	6919.9872
489.445	7215.52288
489.654	6831.02977
489.863	6977.89045
490.072	7013.03737
490.281	7254.75558
490.49	7232.04289
490.698	7397.1655
490.907	7232.04289
491.116	7343.51603
491.325	7595.129
491.534	7619.86054
491.743	7477.61214
491.952	7553.90295
492.16	7675.49529
492.369	8008.98333
492.578	7860.83363
492.787	7737.2936
492.996	8013.09708
493.204	8011.04022
493.413	8231.01076
493.622	8173.4705
493.831	7990.47042
494.039	8185.80187
494.248	8220.73685
494.457	8559.51867
494.665	8580.03414
494.874	8444.59701
495.083	8372.7405
495.291	8666.17868
495.5	8582.08559
495.709	8811.72981
495.917	8639.51841
496.126	8709.23866
496.335	8873.20272
496.543	9024.76723
496.752	8795.33429
496.96	9018.6246
497.169	8912.1272
497.377	9037.05202
497.586	9139.40096
497.794	9131.21463
498.003	9059.5725
498.211	9532.03015
498.42	9454.37023
498.628	9695.45016
498.837	9519.76959
499.045	9638.26451
499.254	9560.63589
499.462	9793.45476
499.671	9662.77413
499.879	10009.7598
500.087	9893.46536
500.296	9879.18031
500.504	9991.40065
500.713	9764.8737
500.921	9834.27973
501.129	9907.74969
501.338	9844.48504
501.546	10028.11779
501.754	10215.71172
501.962	10325.76698
502.171	10291.12419
502.379	10631.27564
502.587	10388.92925
502.795	10368.55571
503.004	10366.51828
503.212	10543.7258
503.42	10553.9072
503.628	10464.3
503.837	10576.30517
504.045	10511.14319
504.253	10706.59099
504.461	11111.39057
504.669	11109.35751
504.877	11023.95914
505.085	10714.73219
505.294	11007.6906
505.502	10995.48872
505.71	11152.04955
505.918	11113.42362
506.126	11282.13
506.334	11064.62743
506.542	11318.70753
506.75	11068.69402
506.958	11202.86731
507.166	11160.18083
507.374	11080.89352
507.582	11129.68764
507.79	11666.03652
507.998	11284.16218
508.206	11404.04247
508.414	11397.94769
508.622	11726.94345
508.83	11576.69169
509.037	11974.55196
509.245	11326.83543
509.453	11927.88114
509.661	11749.274
509.869	12161.19355
510.077	11917.73475
510.285	12211.90028
510.492	12031.36289
510.7	12248.40629
510.908	11836.55611
511.116	12084.11038
511.324	12146.99484
511.531	12144.96642
511.739	11897.44133
511.947	12329.52246
512.155	12177.42021
512.362	12410.62752
512.57	12299.10522
512.778	12361.9658
512.985	12353.85513
513.193	12524.15665
513.401	12495.77628
513.608	12702.51955
513.816	12441.03913
514.024	12761.2881
514.231	12611.31717
514.439	12777.49926
514.646	12345.74435
514.854	12769.39372
515.061	12380.2144
515.269	13048.98476
515.477	12820.05185
515.684	12854.4974
515.892	12801.81533
516.099	12765.34092
516.307	12700.49296
516.514	13180.64299
516.722	13261.65382
516.929	13192.79507
517.136	13164.43997
517.344	13241.40177
517.551	13462.1266
517.759	13458.07703
517.966	13478.32473
518.173	13217.09874
518.381	13259.62863
518.588	13421.63021
518.796	13316.3322
519.003	13524.89302
519.21	13672.68427
519.418	13790.09497
519.625	13755.68257
519.832	13784.02226
520.039	13605.8768
520.247	14083.58008
520.454	13867.01374
520.661	14425.58272
520.868	14152.38983
521.076	14265.71831
521.283	13814.38556
521.49	13939.88044
521.697	13980.36047
521.904	14296.07313
522.112	14024.88734
522.319	14464.02965
522.526	14356.78159
522.733	14546.99237
522.94	14595.55493
523.147	14498.42909
523.354	14302.14405
523.561	14441.77096
523.768	14492.35863
523.975	14743.2623
524.183	14603.64863
524.39	14882.87204
524.597	14931.43128
524.804	14911.1983
525.011	14680.53788
525.218	14915.2449
525.425	15077.10768
525.632	15040.68871
525.838	15178.27125
526.045	15014.38608
526.252	15281.45817
526.459	15425.11158
526.666	15477.71758
526.873	15582.93079
527.08	15212.66686
527.287	15487.83416
527.494	15431.18149
527.701	15558.65066
527.907	15698.26298
528.114	15582.93079
528.321	15467.60102
528.528	16137.36745
528.735	15886.44333
528.941	15864.18493
529.148	15680.05245
529.355	15793.3637
529.562	15350.24973
529.768	15880.37284
529.975	15560.674
530.182	15945.12528
530.388	15516.16067
530.595	15924.89
530.802	15771.10588
531.008	16475.34556
531.215	16281.0525
531.422	16406.53138
531.628	16270.93355
531.835	16056.42176
532.042	16327.60027
532.248	16653.4642
532.455	16416.65096
532.661	16562.37869
532.868	16617.02945
533.074	16582.61953
533.281	16793.13773
533.487	17157.56035
533.694	16574.52317
533.9	17060.37246
534.107	16752.65148
534.313	17084.66883
534.52	16787.06473
534.726	17307.40461
534.933	16963.19091
535.139	17360.05645
535.345	17131.23799
535.552	16993.55948
535.758	17181.85834
535.965	17530.17661
536.171	17627.39819
536.377	17501.82171
536.584	17424.86154
536.79	17287.15444
536.996	17439.03807
537.203	17487.6445
537.409	17544.35429
537.615	18010.28316
537.821	17594.99016
538.028	17935.31714
538.234	17759.06447
538.44	17854.27819
538.646	17923.16094
538.853	17955.57775
539.059	17554.48131
539.265	18073.09628
539.471	18225.0779
539.677	18310.19665
539.883	18156.17702
540.09	18028.51888
540.296	18067.01744
540.502	18563.56562
540.708	18259.52993
540.914	18336.54426
541.12	18221.02479
541.326	18816.99507
541.532	18324.38374
541.738	18739.94602
541.944	18697.36872
542.15	18877.82733
542.356	18662.90266
542.562	18796.71845
542.768	18794.69081
542.974	18814.96739
543.18	18885.93857
543.386	19015.72715
543.592	19068.45848
543.798	18928.52363
544.004	19348.38639
544.21	19484.32173
544.415	19236.81155
544.621	19358.53018
544.827	19021.81139
545.033	19520.84485
545.239	19159.73075
545.445	19878.03114
545.651	19236.81155
545.856	19457.94476
546.062	19614.18785
546.268	19378.81806
546.474	19445.77101
546.679	19319.98434
546.885	19338.24271
547.091	19502.58313
547.297	19636.51031
547.502	19673.03906
547.708	19583.74895
547.914	19756.24851
548.119	19947.04801
548.325	19971.40806
548.531	19717.68716
548.736	19914.56887
548.942	19833.37575
549.147	19873.97147
549.353	20387.65255
549.559	20296.26668
549.764	20056.67302
549.97	20178.49299
550.175	20409.99261
550.381	20621.23277
550.586	20003.88908
550.792	20324.69692
550.997	19855.70319
551.203	20316.57391
551.408	20619.20139
551.614	20462.79841
551.819	20669.98691
552.025	20517.63819
552.23	20550.13728
552.435	21218.63504
552.641	21137.33498
552.846	21139.36741
553.052	20899.5698
553.257	20873.15492
553.462	20852.83626
553.668	20999.13984
553.873	21039.78351
554.078	21206.43962
554.283	21054.00918
554.489	21663.86675
554.694	21336.53163
554.899	21129.20533
555.105	21613.03159
555.31	21450.37564
555.515	21389.38622
555.72	21432.07843
555.925	21521.5345
556.131	21643.53239
556.336	21245.05896
556.541	21743.17449
556.746	21698.43606
556.951	21529.66725
557.156	21279.61434
557.361	21720.80504
557.567	21946.55458
557.772	21883.50263
557.977	21914.01118
558.182	21466.64009
558.387	21993.33742
558.592	22310.69964
558.797	21972.99681
559.002	22131.66362
559.207	21791.98219
559.412	21743.17449
559.617	22109.28615
559.822	22306.63032
560.027	22119.45767
560.232	22105.21756
560.437	21954.69058
560.642	22068.60099
560.847	22145.90407
561.051	22335.11585
561.256	22192.6954
561.461	22493.83401
561.666	22274.07631
561.871	22487.72906
562.076	22957.90283
562.281	22276.1109
562.485	22518.25414
562.69	22526.39429
562.895	22483.65911
563.1	22866.29607
563.305	22223.21255
563.509	22634.25673
563.714	22624.08061
563.919	22907.00934
564.123	22558.95549
564.328	22674.96212
564.533	22815.40641
564.737	22461.27465
564.942	22617.97497
565.147	22829.6553
565.351	22990.47577
565.556	22546.74493
565.761	23137.06455
565.965	22970.11758
566.17	22805.22873
566.374	23446.58506
566.579	23039.33679
566.784	23057.66016
566.988	23175.75055
567.193	23501.57332
567.397	22994.54745
567.602	23346.79738
567.806	23220.54633
568.011	23334.579
568.215	23299.96088
568.42	23387.52613
568.624	23509.71992
568.828	23809.14114
569.033	23153.35325
569.237	23796.91861
569.442	23743.95551
569.646	23446.58506
569.85	23672.6622
570.055	23847.84653
570.259	23908.96243
570.463	24159.56433
570.668	23917.11142
570.872	23693.03134
571.076	23966.00628
571.281	24041.38905
571.485	24016.94016
571.689	24029.16455
571.893	23772.47385
572.098	24342.95792
572.302	24387.79075
572.506	24063.80089
572.71	23764.3257
572.914	24465.23223
573.119	23966.00628
573.323	24010.828
573.527	23853.958
573.731	24609.93543
573.935	24491.72623
574.139	24558.98215
574.343	24512.10652
574.547	24491.72623
574.751	24434.66278
574.955	24715.92324
575.159	24793.38004
575.364	24758.72788
575.568	24717.96153
575.772	24709.80838
575.976	24575.28703
576.18	24102.51303
576.383	24791.34166
576.587	24952.38109
576.791	24567.13457
576.995	24938.11119
577.199	24575.28703
577.403	24442.81457
577.607	24823.95605
577.811	25127.70622
578.015	25056.35095
578.219	25148.09394
578.422	25058.38964
578.626	25411.11499
578.83	24830.07132
579.034	25368.2952
579.238	25164.40428
579.442	25447.81839
579.645	25294.892
579.849	25241.88029
580.053	25394.80258
580.257	25376.45128
580.46	25419.27124
580.664	25633.38459
580.868	25370.33421
581.071	25596.67787
581.275	25466.17035
581.479	25674.17057
581.682	25496.75731
581.886	25464.13123
582.09	25521.2272
582.293	25702.72123
582.497	25814.88815
582.7	25874.03301
582.904	26094.31015
583.107	25539.57981
583.311	25774.09951
583.515	26112.66751
583.718	25933.17943
583.922	26292.16909
584.125	26255.45179
584.329	26055.55617
584.532	26222.81465
584.735	26457.40355
584.939	26016.80284
585.142	26271.77053
585.346	25931.13987
585.549	26488.00369
585.753	26479.84362
585.956	26661.41112
586.159	26022.92175
586.363	26977.65255
586.566	26855.23237
586.769	27004.17759
586.973	26771.58156
587.176	26620.60837
587.379	26612.44789
587.582	26657.33082
587.786	26720.57618
587.989	27008.25839
588.192	26722.61638
588.395	26991.93523
588.599	26775.66203
588.802	26769.54133
589.005	26553.28517
589.208	27079.67322
589.411	26763.42064
589.615	26785.86323
589.818	26983.77369
590.021	27228.62953
590.224	27208.22414
590.427	27526.56305
590.63	27053.14752
590.833	27232.71063
591.036	27136.8063
591.239	27289.84651
591.442	27153.13024
591.645	27489.83006
591.848	27663.29489
592.051	27640.846
592.254	27406.16199
592.457	27410.24331
592.66	27769.41885
592.863	28126.58987
593.066	27838.80933
593.269	27785.7459
593.472	27649.00922
593.675	28416.43373
593.878	27889.83259
594.081	28122.50772
594.284	28024.53746
594.486	28455.2173
594.689	28414.3925
594.892	28120.46665
595.095	28471.54735
595.298	27855.13669
595.5	28287.83832
595.703	28769.58249
595.906	28159.24723
596.109	28279.67368
596.311	28063.31704
596.514	27957.1844
596.717	28524.62045
596.92	28285.79716
597.122	28253.13871
597.325	28514.41403
597.528	27971.47131
597.73	28445.01106
597.933	28406.22759
598.136	28945.14787
598.338	28694.05092
598.541	28918.60842
598.743	28661.38906
598.946	28153.12395
599.148	28412.35127
599.351	28242.933
599.554	28416.43373
599.756	28618.52078
599.959	28818.57671
600.161	28930.85737
600.363	29141.13689
600.566	29333.05209
600.768	29267.71822
600.971	29239.13499
601.173	29433.09666
601.376	29298.34334
601.578	29045.18274
601.78	29206.46869
601.983	29190.13564
602.185	30017.08168
602.388	29251.38492
602.59	29059.47363
602.792	29324.8853
602.995	29435.13841
603.197	28908.40099
603.399	29335.09379
603.601	29257.5099
603.804	29194.2189
604.006	29502.51683
604.208	29047.22429
604.41	29096.22189
604.613	29377.96975
604.815	29316.71852
605.017	29694.44958
605.219	29535.18556
605.421	29774.08406
605.623	29159.51135
605.826	29596.44018
606.028	29259.55156
606.23	29320.80191
606.432	29165.63619
606.634	29886.39192
606.836	29729.16184
607.038	29861.8881
607.24	29345.30231
607.442	29653.61203
607.644	29714.86852
607.846	30055.8811
608.048	29859.84613
608.25	29680.15639
608.452	29743.45522
608.654	29939.48408
608.856	29541.31098
609.058	29894.5599
609.26	30090.59672
609.462	29986.45086
609.664	29823.09072
609.866	29765.91634
610.067	29767.95827
610.269	29835.34248
610.471	29520.89296
610.673	29814.92289
610.875	30478.61805
611.077	30051.79693
611.278	29868.01404
611.48	29745.49713
611.682	29794.50342
611.884	30421.43321
612.085	30049.75485
612.287	30049.75485
612.489	29939.48408
612.69	30241.71568
612.892	30094.68093
613.094	30560.31239
613.295	29767.95827
613.497	30002.78727
613.699	29612.77491
613.9	29963.98841
614.102	30202.91425
614.304	29825.13267
614.505	29939.48408
614.707	30186.57694
614.908	29663.82138
615.11	30076.30201
615.311	30157.98681
615.513	30319.31982
615.714	29984.40881
615.916	29957.86231
616.117	29596.44018
616.319	29678.11451
616.52	29796.54536
616.722	30017.08168
616.923	29704.65904
617.124	29933.35803
617.326	29743.45522
617.527	30296.85529
617.729	30351.99577
617.93	30574.60911
618.131	30370.37613
618.333	30262.13765
618.534	30762.51478
618.735	30590.9483
618.937	30660.39075
619.138	30253.96885
619.339	30376.50294
619.54	30515.38025
619.742	30055.8811
619.943	30113.05994
620.144	30104.89148
620.345	30194.74558
620.546	30115.10206
620.748	30556.22763
620.949	30272.34869
621.15	30637.92391
621.351	30164.11325
621.552	30423.47551
621.753	30135.52331
621.954	30384.67204
622.155	30329.53103
622.356	30605.24515
622.558	30433.68702
622.759	30744.13221
622.96	30417.34861
623.161	30476.57572
623.362	30374.46067
623.563	30541.93099
623.764	30182.49262
623.965	30443.89857
624.166	30666.5181
624.366	30566.43955
624.567	30543.97336
624.768	30940.21867
624.969	30447.98319
625.17	30652.22097
625.371	30717.5798
625.572	30599.11792
625.773	30976.98631
625.973	30701.23997
626.174	30043.62861
626.375	30519.46497
626.576	30541.93099
626.777	30680.81529
626.977	30595.0331
627.178	31275.23029
627.379	30684.90022
627.58	30695.11255
627.78	30562.35478
627.981	30844.21642
628.182	30766.59981
628.382	30658.34831
628.583	30588.90589
628.784	30543.97336
628.984	30106.9336
629.185	30319.31982
629.386	30049.75485
629.586	31081.16383
629.787	30834.0036
629.987	30784.98251
630.188	30519.46497
630.388	30490.87207
630.589	30290.72862
630.79	30486.78739
630.99	30744.13221
631.191	30850.34413
631.391	31436.62255
631.591	31232.3302
631.792	30780.89746
631.992	30607.28756
632.193	31166.95995
632.393	30784.98251
632.594	30878.94028
632.794	30513.3379
632.994	30664.47565
633.195	30878.94028
633.395	30793.15264
633.595	30588.90589
633.796	30899.36627
633.996	30844.21642
634.196	30723.70726
634.397	31679.75185
634.597	31218.03033
634.797	31706.31367
634.997	30974.94365
635.198	31534.68862
635.398	31356.94664
635.598	31765.56805
635.798	31420.27857
635.998	31405.97768
636.199	31054.60842
636.399	30913.66455
636.599	30707.36739
636.799	30917.74978
636.999	30629.75419
637.199	31189.4308
637.399	31238.45874
637.599	31602.11129
637.799	31228.24452
637.999	31890.21159
638.199	31669.53584
638.399	31434.57954
638.599	31312.00233
638.799	31661.36307
638.999	31610.28386
639.199	31487.69815
639.399	31299.74493
639.599	31653.19032
639.799	31260.93018
639.999	31569.42128
640.199	31520.38708
640.399	31481.56902
640.599	30592.9907
640.799	32225.35433
640.998	31499.95645
641.198	32100.69131
641.398	31358.98958
641.598	31978.07926
641.798	32061.86339
641.997	31604.15443
642.197	31522.43015
642.397	32039.3844
642.597	31767.61133
642.796	31489.74119
642.996	31585.76623
643.196	31732.87579
643.395	31356.94664
643.595	31812.56399
643.795	32164.04369
643.994	31912.68903
644.194	31749.22187
644.394	31888.1682
644.593	31295.65914
644.793	32012.81862
644.992	32219.22318
645.192	31687.92468
645.392	32092.51695
645.591	32178.34934
645.791	31798.26078
645.99	31818.69397
646.19	31810.52067
646.389	32200.82985
646.589	32135.4327
646.788	32241.70414
646.987	31861.60427
647.187	32023.03619
647.386	31857.51754
647.586	32323.45527
647.785	32098.64772
647.984	32356.15668
648.184	32245.79162
648.383	31933.12327
648.582	31463.18173
648.782	32333.6744
648.981	31783.95765
649.18	32206.96094
649.38	32388.85865
649.579	32474.70401
649.778	32419.51725
649.977	32644.36264
650.177	32298.92957
650.376	32186.52404
650.575	32053.68919
650.774	32595.30307
650.973	32358.20054
651.173	32370.46372
651.372	32298.92957
651.571	32239.66041
651.77	32249.8791
651.969	32397.03423
652.168	32337.76207
652.367	32339.8059
652.566	32025.07971
652.765	32229.44177
652.964	32174.262
653.163	32084.34263
653.362	32268.27289
653.561	32578.95018
653.76	32472.66003
653.959	32617.78853
654.158	32611.65611
654.357	31969.90537
654.556	31882.03803
654.755	32454.26428
654.954	32159.95638
655.153	31947.42735
655.352	32442.00055
655.551	32628.0093
655.749	32789.5053
655.948	33143.21654
656.147	32703.64478
656.346	32889.68148
656.545	32521.71625
656.743	32433.82478
656.942	32317.32381
657.141	32752.7074
657.34	32634.14178
657.538	32599.39131
657.737	32656.62774
657.936	33443.83381
658.135	32953.06142
658.333	33069.60534
658.532	32636.18595
658.731	32889.68148
658.929	32568.7297
659.128	32501.276
659.326	32679.11399
659.525	32444.0445
659.724	32785.41661
659.922	32607.56783
660.121	32341.84974
660.319	32078.2119
660.518	32511.4961
660.716	32724.08737
660.915	33036.89038
661.113	33096.18675
661.312	33051.20309
661.51	33239.32549
661.709	32632.09762
661.907	32560.55336
662.105	32775.19491
662.304	32740.44161
662.502	32742.48591
662.701	32820.17083
662.899	32877.41468
663.097	33218.87625
663.296	32916.25986
663.494	33341.57597
663.692	32975.55168
663.891	33218.87625
664.089	32912.17085
664.287	32838.57043
664.485	32746.5745
664.684	32844.70367
664.882	32783.37226
665.08	33235.23562
665.278	32717.95456
665.476	33045.06905
665.675	33016.44388
665.873	32752.7074
666.071	33043.02438
666.269	32922.3934
666.467	32728.17591
666.665	33294.53985
666.863	32685.24665
667.061	32887.63701
667.259	32709.77753
667.457	32895.81491
667.655	32589.17072
667.853	32771.10625
668.051	32448.13241
668.249	33040.97971
668.447	32713.86604
668.645	32628.0093
668.843	32540.11267
669.041	32562.59745
669.239	32476.748
669.437	32239.66041
669.635	32431.78084
669.833	32470.61605
670.031	32051.64564
670.229	32484.92396
670.426	32503.32001
670.624	32762.92896
670.822	32356.15668
671.02	32693.42357
671.218	32020.99267
671.415	32368.41985
671.613	32333.6744
671.811	32125.21458
672.009	32769.06193
672.206	32266.22912
672.404	32311.19238
672.602	32358.20054
672.799	32521.71625
672.997	32887.63701
673.195	32566.68562
673.392	32771.10625
673.59	32519.67222
673.788	32157.91273
673.985	32027.12323
674.183	31994.42713
674.38	32166.08735
674.578	32507.40805
674.775	32125.21458
674.973	32323.45527
675.17	32262.14161
675.368	32397.03423
675.565	32760.88464
675.763	32511.4961
675.96	32174.262
676.158	31953.55769
676.355	31786.00095
676.553	32672.98135
676.75	31920.8627
676.947	32527.84837
677.145	32114.99652
677.342	32047.55855
677.539	32125.21458
677.737	31867.73438
677.934	32051.64564
678.131	32247.83536
678.329	32292.7982
678.526	32564.64153
678.723	32417.47333
678.92	32748.6188
679.118	32245.79162
679.315	32413.38549
679.512	32176.30567
679.709	32523.76029
679.906	32039.3844
680.104	32166.08735
680.301	32135.4327
680.498	31961.73152
680.695	31587.80936
680.892	31567.37817
681.089	31912.68903
681.286	31882.03803
681.483	31201.6877
681.68	31593.93875
681.877	31600.06815
682.075	31342.6461
682.272	31528.55938
682.469	32063.90695
682.665	31775.78448
682.862	31786.00095
683.059	31542.86097
683.256	31728.78929
683.453	31980.12274
683.65	31473.39688
683.847	31759.43822
684.044	31260.93018
684.241	30921.83502
684.438	31457.05266
684.635	31005.58369
684.831	31497.91339
685.028	31816.65064
685.225	31796.21747
685.422	31673.62224
685.619	31616.41331
685.815	31205.77335
686.012	31395.7628
686.209	31015.7971
686.405	31796.21747
686.602	31042.35216
686.799	31403.9347
686.996	31516.30094
687.192	31953.55769
687.389	31726.74605
687.586	31152.66041
687.782	31702.22722
687.979	31448.8806
688.175	31013.75442
688.372	30952.4745
688.568	30840.13129
688.765	30740.04721
688.962	30742.08971
689.158	30829.91848
689.355	30376.50294
689.551	30562.35478
689.748	30364.24934
689.944	30566.43955
690.14	30635.88148
690.337	30862.59959
690.533	31148.57484
690.73	31005.58369
690.926	30995.37031
691.123	30650.17853
691.319	30368.33387
691.515	30968.81569
691.712	30429.60241
691.908	30770.68485
692.104	30527.63441
692.301	30360.16481
692.497	30539.88862
692.693	30699.19749
692.889	30860.55701
693.086	30652.22097
693.282	30484.74506
693.478	30662.4332
693.674	30349.95352
693.87	30499.04145
694.067	30294.81306
694.263	30276.43311
694.459	30343.82676
694.655	30247.84226
694.851	29961.94638
695.047	29963.98841
695.243	30447.98319
695.439	29904.76989
695.635	30082.42831
695.831	30206.99859
696.027	29751.62288
696.224	29794.50342
696.42	29890.47591
696.615	30298.89751
696.811	30055.8811
697.007	30180.45046
697.203	29819.0068
697.399	30390.79887
697.595	30235.58911
697.791	30623.62691
697.987	30292.77084
698.183	30836.04616
698.379	29700.57525
698.575	30284.60197
698.77	29492.3079
698.966	30002.78727
699.162	30401.01029
699.358	30452.06782
699.554	29921.10594
699.749	29733.24566
699.945	29855.76217
700.141	30147.77611
700.337	30002.78727
700.532	30037.50238
700.728	30051.79693
700.924	30452.06782
701.119	29988.4929
701.315	29690.36581
701.511	29328.96869
701.706	29112.55456
701.902	29149.30331
702.097	29504.55861
702.293	29782.25179
702.489	29749.58097
702.684	29363.67771
702.88	29812.88094
703.075	29819.0068
703.271	29451.47247
703.466	29659.73764
703.662	29625.026
703.857	29790.41954
704.053	29876.18198
704.248	29590.31468
704.443	29951.73623
704.639	29853.7202
704.834	30401.01029
705.03	29643.40271
705.225	29629.10971
705.42	29667.90512
705.616	29492.3079
705.811	29014.55955
706.006	29829.21659
706.202	29643.40271
706.397	29821.04876
706.592	29453.51423
706.787	29473.9319
706.983	29341.2189
707.178	30017.08168
707.373	29284.05159
707.568	29030.89189
707.763	28765.49967
707.959	28902.27654
708.154	29061.5152
708.349	28979.85356
708.544	29373.8863
708.739	29112.55456
708.934	28847.15694
709.129	28710.38195
709.324	28804.28666
709.519	28904.31802
709.714	28875.73738
709.909	28808.36953
710.104	28704.2578
710.299	28634.8515
710.494	28732.83722
710.689	28965.56294
710.884	29053.34896
711.079	28992.1027
711.274	29110.51297
711.469	29716.91042
711.664	28900.23506
711.859	28802.24523
712.054	28702.21643
712.249	28577.69428
712.443	28406.22759
712.638	28428.68113
712.833	28265.3856
713.028	28442.96982
713.223	28036.7836
713.417	28426.63989
713.612	28988.01965
713.807	29153.38652
714.002	29212.5936
714.196	29553.56185
714.391	28806.3281
714.586	29290.17662
714.78	29004.35188
714.975	28843.07404
715.17	28696.09229
715.364	28953.31389
715.559	28783.87241
715.754	28988.01965
715.948	28706.29918
716.143	28122.50772
716.337	28075.56331
716.532	28428.68113
716.726	28794.07952
716.921	28885.94473
717.115	29206.46869
717.31	28761.41685
717.504	28857.36422
717.699	28702.21643
717.893	28193.94599
718.088	28336.82654
718.282	28422.55742
718.476	28334.78536
718.671	27965.34834
718.865	27908.20114
719.059	27371.47097
719.254	27724.51986
719.448	27465.34162
719.642	27749.01015
719.837	27510.23722
720.031	27889.83259
720.225	27177.61629
720.419	27891.87354
720.614	27800.03213
720.808	27926.56979
721.002	27114.36104
721.196	27677.58062
721.39	27940.85658
721.585	27459.21954
721.779	27649.00922
721.973	27857.17762
722.167	27473.50441
722.361	27512.27795
722.555	27491.87077
722.749	27893.91448
722.943	26993.97562
723.137	27028.66245
723.331	26759.34018
723.525	27212.30521
723.719	27416.3653
723.913	27377.59289
724.107	27047.02623
724.301	27195.98097
724.495	26836.86978
724.689	27198.02149
724.883	26669.57174
725.077	26498.20381
725.271	26855.23237
725.465	27187.81888
725.659	27283.72476
725.853	27632.68281
726.046	26857.27266
726.24	26798.10472
726.434	26700.17429
726.628	27220.46736
726.822	27024.58163
727.015	27273.52187
727.209	27044.98581
727.403	27261.27844
727.596	27318.41484
727.79	27542.88895
727.984	27351.06466
728.177	27814.31842
728.371	27206.18361
728.565	26808.306
728.758	26969.49104
728.952	26877.67568
729.146	27020.50081
729.339	27000.0968
729.533	27149.04924
729.726	27410.24331
729.92	27222.5079
730.113	27587.78558
730.307	27310.25243
730.5	27112.32057
730.694	27412.28397
730.887	27226.58899
731.081	27575.54099
731.274	27300.04946
731.468	26528.80443
731.661	26694.05376
731.854	26687.93323
732.048	26683.85289
732.241	26516.56414
732.435	26406.40412
732.628	26626.72874
732.821	26949.08738
733.014	27049.06666
733.208	26953.1681
733.401	27653.09083
733.594	27218.42682
733.788	27014.37959
733.981	26836.86978
734.174	26789.94372
734.367	26661.41112
734.56	26816.46705
734.754	26900.11917
734.947	26785.86323
735.14	26653.25052
735.333	26587.96661
735.526	26455.36356
735.719	26365.60531
735.912	26390.08452
736.105	26002.52546
736.298	26059.63551
736.491	26094.31015
736.684	26265.65099
736.877	26198.33707
737.07	26398.24431
737.263	26086.15136
737.456	26326.84704
737.649	26045.35787
737.842	26067.7942
738.035	26218.73504
738.228	26069.83388
738.421	26351.32588
738.614	25982.12935
738.807	25896.46768
739	26161.62118
739.192	25945.41681
739.385	26359.48554
739.578	26253.41196
739.771	26214.65543
739.964	26077.99261
740.156	26645.08994
740.349	26335.00663
740.542	26341.12633
740.735	26165.70069
740.927	26349.28597
741.12	25984.16895
741.313	25927.06077
741.505	25922.98166
741.698	25837.32223
741.891	25486.5616
742.083	25949.49596
742.276	26047.39752
742.468	25743.50853
742.661	25219.4527
742.854	25360.13915
743.046	25513.07054
743.239	25643.58101
743.431	25741.46915
743.624	25515.1097
743.816	25374.41225
744.009	25698.64254
744.201	25172.5595
744.393	25837.32223
744.586	25203.14189
744.778	25633.38459
744.971	25294.892
745.163	25576.28553
745.355	25529.3839
745.548	25492.67902
745.74	25792.45431
745.932	25574.2463
746.125	25347.90514
746.317	25531.42308
746.509	25747.58731
746.702	25460.05301
746.894	25095.08633
747.086	25188.87005
747.278	25305.08672
747.471	25649.69889
747.663	25588.52091
747.855	25429.46661
748.047	25466.17035
748.239	25325.47633
748.431	25070.62179
748.623	25215.37499
748.815	25345.86615
749.008	25270.42488
749.2	25617.07041
749.392	25496.75731
749.584	25162.36548
749.776	25364.21717
749.968	25241.88029
750.16	25392.76354
750.352	25209.25843
750.544	25464.13123
750.736	25464.13123
750.928	24927.91847
751.12	24846.3788
751.311	24980.92125
751.503	24891.22515
751.695	25105.27999
751.887	25470.24858
752.079	25794.49374
752.271	25178.67594
752.463	25023.73232
752.654	24942.18829
752.846	24885.10967
753.038	24695.54045
753.23	24772.99634
753.421	24823.95605
753.613	24777.07306
753.805	25490.63988
753.997	25162.36548
754.188	24662.9285
754.38	24862.68643
754.572	24605.85911
754.763	24489.68821
754.955	24434.66278
755.146	24705.73182
755.338	24495.80226
755.53	24522.29676
755.721	24514.14456
755.913	24544.71551
756.104	24571.21079
756.296	24630.31719
756.487	24510.06848
756.679	24848.41724
756.87	24611.9736
757.062	24444.85253
757.253	24328.6932
757.445	24023.05234
757.636	24161.60192
757.827	24190.12842
758.019	24047.50134
758.21	23990.45432
758.401	24090.28804
758.593	24351.10925
758.784	23833.58653
758.975	23833.58653
759.167	23680.80982
759.358	23556.56383
759.549	23194.07591
759.74	22756.37709
759.932	23521.93991
760.123	23530.08664
760.314	23424.18309
760.505	23489.35351
760.696	23308.10624
760.888	23674.6991
761.079	23595.26219
761.27	23322.36073
761.461	23287.74294
761.652	23513.79324
761.843	23359.01587
762.034	23493.42677
762.225	23371.23448
762.416	23265.34368
762.607	23251.08981
762.798	23509.71992
762.989	23324.3971
763.18	23218.51013
763.371	22772.66075
763.562	23021.01368
763.753	23234.79986
763.944	23047.48048
764.135	22959.93861
764.326	23247.0173
764.517	22974.18919
764.708	23371.23448
764.899	22601.69344
765.089	22343.25471
765.28	22563.0257
765.471	22654.60925
765.662	22398.19351
765.853	22709.5628
766.043	22363.6021
766.234	22607.79899
766.425	22176.41993
766.615	22729.91661
766.806	22414.47218
766.997	22046.22479
767.187	22357.49785
767.378	22552.8502
767.569	22414.47218
767.759	22385.98466
767.95	22583.37698
768.141	22713.63354
768.331	22253.73053
768.522	22329.01175
768.712	22729.91661
768.903	22982.33246
769.093	22249.66141
769.284	21857.06259
769.474	21733.0065
769.665	21798.08331
769.855	22080.80638
770.046	21970.96277
770.236	21739.10728
770.426	21678.10104
770.617	21730.97291
770.807	21812.31939
770.998	21895.70595
771.188	21480.8717
771.378	21867.23176
771.569	21712.67081
771.759	21531.70045
771.949	21515.43498
772.139	21547.96617
772.33	21600.83152
772.52	21665.90021
772.71	21956.72459
772.9	21765.54441
773.09	21745.2081
773.281	21657.7664
773.471	21405.64971
773.661	21401.58381
773.851	20820.32725
774.041	20891.44207
774.231	21326.36759
774.421	20893.474
774.611	20621.23277
774.802	20824.39082
774.992	20818.29548
775.182	20964.59402
775.372	20897.53787
775.562	20720.77502
775.752	20818.29548
775.942	20706.55409
776.131	20820.32725
776.321	20363.28215
776.511	20598.88792
776.701	20690.30184
776.891	20385.62166
777.081	20519.66935
777.271	20495.29569
777.461	20852.83626
777.651	20674.04986
777.84	20247.53102
778.03	20091.18714
778.22	19934.86821
778.41	19963.28798
778.599	20190.67582
778.789	20716.71188
778.979	20314.54317
779.169	20491.23347
779.358	20225.19465
779.548	20385.62166
779.738	19849.61384
779.927	20483.10908
780.117	20062.76366
780.307	20164.27988
780.496	19947.04801
780.686	19867.88201
780.875	19843.52452
781.065	19979.52821
781.254	19742.04152
781.444	19498.52501
781.633	19859.76278
781.823	19758.27809
782.012	19589.83665
782.202	20099.30829
782.391	19721.74618
782.581	19792.78171
782.77	19468.08967
782.96	19569.54445
783.149	19169.87262
783.338	19419.39507
783.528	19409.25066
783.717	19324.04173
783.906	19046.14874
784.096	18999.50267
784.285	19656.80389
784.474	19332.15655
784.663	19591.86589
784.853	19376.78926
785.042	19218.55504
785.231	19354.47265
785.42	19285.49722
785.61	18971.11046
785.799	19334.18527
785.988	19447.79996
786.177	19171.90101
786.366	19332.15655
786.555	19139.44731
786.744	18863.63282
786.933	18997.47463
787.122	19206.38421
787.312	19086.71227
787.501	18776.44222
787.69	18454.10292
787.879	18875.79953
788.068	18401.40263
788.257	18304.11652
788.445	18448.02198
788.634	18508.83287
788.823	18468.29189
789.012	18705.47855
789.201	18243.31708
789.39	18405.45641
789.579	18210.89208
789.768	18666.95743
789.957	18458.15689
790.145	18715.61592
790.334	18823.07814
790.523	18610.19205
790.712	18099.4383
790.9	18405.45641
791.089	17937.34318
791.278	18265.60982
791.467	18261.55656
791.655	18139.96567
791.844	17973.8126
792.033	17856.30409
792.221	17821.86416
792.41	17669.93499
792.599	17528.15124
792.787	17659.80705
792.976	17526.12587
793.164	18010.28316
793.353	17732.73008
793.541	18018.38789
793.73	17396.50892
793.918	17627.39819
794.107	17394.48376
794.295	17605.11758
794.484	17698.29367
794.672	17420.81113
794.861	17566.63383
795.049	17457.26527
795.238	17086.69355
795.426	17649.67919
795.614	17151.48592
795.803	17228.43064
795.991	17396.50892
796.179	17416.76073
796.368	17309.42964
796.556	17714.49892
796.744	17210.20651
796.932	17530.17661
797.121	17149.46111
797.309	17129.21321
797.497	16916.62693
797.685	17364.10667
797.874	17032.0272
798.062	17374.23229
798.25	16825.52743
798.438	17167.68446
798.626	17272.97951
798.814	17218.3061
799.002	16922.70042
799.19	16868.03989
799.378	16894.35769
799.566	17270.95453
799.755	16949.01912
799.943	17011.78091
800.131	17054.29843
800.318	16922.70042
800.506	17064.42183
800.694	17210.20651
800.882	16710.14195
801.07	17287.15444
801.258	17021.90402
801.446	16991.53489
801.634	16651.44003
801.822	16870.06432
802.01	16643.34336
802.197	17036.07649
802.385	16940.92101
802.573	16930.79843
802.761	16803.25944
802.949	16985.46114
803.136	16774.91879
803.324	17056.32311
803.512	16890.30877
803.699	16643.34336
803.887	17013.80553
804.075	17147.43631
804.262	17214.2563
804.45	17032.0272
804.638	16736.45725
804.825	17252.72985
805.013	16813.38122
805.201	17349.93094
805.388	16608.93294
805.576	16868.03989
805.763	16449.03398
805.951	16536.06594
806.138	16380.22068
806.326	16406.53138
806.513	16612.98119
806.701	16560.35462
806.888	16331.64795
807.075	16651.44003
807.263	16364.02965
807.45	16637.27089
807.638	16724.31168
807.825	16679.77864
808.012	16789.08906
808.2	16716.21468
808.387	16665.60928
808.574	16870.06432
808.761	16710.14195
808.949	16465.22568
809.136	16341.76718
809.323	16453.08189
809.51	16685.85126
809.698	16428.79453
809.885	16511.77756
810.072	16704.06925
810.259	16598.81235
810.446	16888.28431
810.633	16627.15014
810.82	16849.82013
811.008	16811.35686
811.195	17159.58517
811.382	16610.95707
811.569	16930.79843
811.756	16700.02079
811.943	16916.62693
812.13	16821.47868
812.317	16961.16636
812.504	16803.25944
812.691	16855.89336
812.878	16995.58408
813.064	17011.78091
813.251	17200.0821
813.438	17175.7838
813.625	16327.60027
813.812	16758.72435
813.999	16853.86895
814.186	16857.91778
814.372	16736.45725
814.559	16639.29504
814.746	16677.75444
814.933	16562.37869
815.12	16481.41751
815.306	16042.25651
815.493	16082.72884
815.68	16534.04189
815.866	16728.36019
816.053	16967.24002
816.24	16718.23892
816.426	16594.76413
816.613	16538.08998
816.799	16821.47868
816.986	16570.475
817.173	16803.25944
817.359	16467.24965
817.546	16586.66772
817.732	16092.84701
817.919	16301.29054
818.105	16327.60027
818.292	16572.49908
818.478	16368.07739
818.665	16380.22068
818.851	16602.86058
819.037	16606.90882
819.224	16139.39113
819.41	16088.79974
819.597	16242.60072
819.783	16590.71592
819.969	16252.71955
820.156	16064.51622
820.342	16092.84701
820.528	16396.41184
820.714	16234.50569
820.901	16295.21911
821.087	16519.87365
821.273	16408.55529
821.459	16264.8622
821.646	16362.00578
821.832	16254.74332
822.018	16297.24292
822.204	15613.28111
822.39	15862.16145
822.576	15526.27731
822.762	15787.29338
822.948	15449.39123
823.134	16038.20931
823.32	15605.18767
823.507	15748.84819
823.693	16202.12585
823.879	15935.00763
824.065	16019.99699
824.25	15750.87161
824.436	15564.72068
824.622	15882.39634
824.808	15777.17619
824.994	15999.7612
825.18	15738.7311
825.366	15898.58433
825.552	15382.62235
825.738	15890.49032
825.923	15765.03559
826.109	15943.10175
826.295	15793.3637
826.481	16019.99699
826.667	15908.70187
826.852	16007.8555
827.038	15635.53812
827.224	15404.87859
827.409	15546.51063
827.595	15301.69095
827.781	15113.52658
827.966	15236.94612
828.152	15032.5956
828.338	15028.54904
828.523	15032.5956
828.709	15097.34041
828.894	14601.6252
829.08	14923.33809
829.266	14797.89259
829.451	14951.66422
829.637	14769.56584
829.822	14907.1517
830.008	15311.80735
830.193	15172.20144
830.378	14878.82543
830.564	15168.1549
830.749	15034.61888
830.935	15069.01458
831.12	14757.42576
831.305	14822.17255
831.491	14727.07543
831.676	14884.89535
831.861	14733.14551
832.047	14710.88851
832.232	14571.27373
832.417	14741.23894
832.602	14603.64863
832.788	14694.70153
832.973	14947.61763
833.158	15050.8051
833.343	14789.79925
833.528	14741.23894
833.714	14504.49954
833.899	14644.11684
834.084	14508.5465
834.269	14528.78123
834.454	14490.33514
834.639	14476.17067
834.824	14223.22085
835.009	14478.19417
835.194	14447.84153
835.379	14510.56998
835.564	13982.38444
835.749	14168.58
835.934	13947.97653
836.119	14109.88999
836.304	13911.54381
836.489	13915.59193
836.674	13891.30303
836.859	14047.15033
837.044	14146.31848
837.228	14035.00692
837.413	13871.06198
837.598	14045.12644
837.783	13725.31795
837.968	13648.39106
838.152	13466.17616
838.337	13682.8063
838.522	13753.65828
838.707	13943.92849
838.891	13662.56216
839.076	13935.83238
839.261	13723.29362
839.445	14138.22332
839.63	13960.12058
839.815	13769.85249
839.999	14028.93518
840.184	14103.8185
840.368	14073.46078
840.553	14322.38032
840.737	13858.91722
840.922	13820.45814
841.106	13605.8768
841.291	13636.24428
841.475	13383.1572
841.66	13753.65828
841.844	12953.77293
842.029	13263.679
842.213	13042.90774
842.397	13154.31293
842.582	13340.63271
842.766	13241.40177
842.951	12897.04561
843.135	12820.05185
843.319	12787.63105
843.504	13144.18577
843.688	13213.04817
843.872	13306.2068
844.056	13178.61763
844.241	12905.14977
844.425	13085.44597
844.609	13004.4189
844.793	12775.47288
844.977	12852.47123
845.161	12653.87979
845.346	12868.6804
845.53	12805.86793
845.714	12895.01956
845.898	12473.47653
846.082	12779.52563
846.266	12917.30584
846.45	12925.40978
846.634	12787.63105
846.818	13097.59936
847.002	12773.4465
847.186	12848.41888
847.37	12820.05185
847.554	12828.15683
847.738	12708.59928
847.922	13206.97229
848.106	13208.99759
848.29	12704.54613
848.473	12779.52563
848.657	12376.1592
848.841	12278.82618
849.025	12244.35018
849.209	12002.9582
849.392	12128.73881
849.576	12106.42506
849.76	12130.76729
849.944	11911.64681
850.127	12096.28214
850.311	11887.29432
850.495	12432.92951
850.678	12284.90997
850.862	12471.44924
851.046	11962.37738
851.229	12108.45362
851.413	11984.69723
851.596	12213.92845
851.78	12075.99572
851.964	12331.55022
852.147	12035.42058
852.331	11962.37738
852.514	11592.93752
852.698	11724.91335
852.881	11084.95993
853.065	11162.21363
853.248	11276.03343
853.431	11454.82883
853.615	11316.67554
853.798	11540.13639
853.982	11229.28995
854.165	11460.92278
854.348	11082.92673
854.532	11332.93124
854.715	11349.18631
854.898	11239.45204
855.081	11416.23175
855.265	11408.1056
855.448	11361.37719
855.631	11397.94769
855.814	11040.22698
855.997	11127.65468
856.181	11139.8523
856.364	11089.0263
856.547	11056.49412
856.73	11284.16218
856.913	10865.31019
857.096	11141.8852
857.279	11237.41965
857.462	11017.85852
857.645	11003.62335
857.828	11186.60634
858.011	10698.44959
858.194	10832.75823
858.377	10806.30757
858.56	10995.48872
858.743	10696.41421
858.926	10816.48114
859.109	10429.6724
859.292	10598.70164
859.475	10331.88001
859.658	10521.32561
859.841	10480.59405
860.023	10523.36205
860.206	10502.99704
860.389	10423.56126
860.572	10152.51391
860.755	10195.32678
860.937	10205.51942
861.12	10140.28054
861.303	10291.12419
861.486	10390.96653
861.668	10340.03054
861.851	10111.73406
862.034	10075.02741
862.216	10291.12419
862.399	9789.37193
862.581	9948.55809
862.764	9973.04034
862.947	10148.43618
863.129	10154.55276
863.312	10209.59638
863.494	10144.35839
863.677	10268.7062
863.859	10158.63041
864.042	10070.94861
864.224	9605.58154
864.406	9928.15462
864.589	9791.41335
864.771	9626.00886
864.954	9419.62011
865.136	9378.73161
865.318	9325.56675
865.501	9440.06192
865.683	9468.67774
865.865	9532.03015
866.048	9323.52173
866.23	9474.80929
866.412	9354.19536
866.594	9417.57584
866.777	9431.88539
866.959	9305.11576
867.141	8862.95836
867.323	9182.37471
867.505	9278.52699
867.687	9341.92635
867.869	9270.34526
868.052	9597.41017
868.234	9182.37471
868.416	9605.58154
868.598	9229.4326
868.78	9362.37437
868.962	9106.654
869.144	9642.3496
869.326	9417.57584
869.508	9204.88177
869.69	9049.33618
869.872	9258.07216
870.054	9196.69762
870.236	9621.92352
870.417	9346.01609
870.599	9221.24926
870.781	9118.93462
870.963	9090.27886
871.145	9082.09088
871.327	9098.46657
871.508	8729.74055
871.69	9139.40096
871.872	8862.95836
872.054	9198.74369
872.235	8783.03689
872.417	8899.83596
872.599	8584.13701
872.78	9092.32581
872.962	8830.17339
873.144	8971.52587
873.325	8651.82354
873.507	8891.64144
873.689	8627.21261
873.87	8893.69009
874.052	8493.85646
874.233	8948.9971
874.415	8608.75265
874.596	9057.52527
874.778	8397.37968
874.959	8778.93761
875.141	8417.9102
875.322	8932.61119
875.503	8678.48236
875.685	8910.07871
875.866	8598.49646
876.048	9059.5725
876.229	8717.43963
876.41	9045.24153
876.592	8848.6155
876.773	8805.58163
876.954	8582.08559
877.136	8783.03689
877.317	8612.855
877.498	8647.72191
877.679	8610.80383
877.86	8789.18567
878.042	8643.6202
878.223	8657.97586
878.404	8518.48206
878.585	8657.97586
878.766	8557.46702
878.947	8713.33918
879.128	8374.79387
879.309	8481.54263
879.49	8619.00837
879.672	8707.18837
879.853	8491.8042
880.034	8651.82354
880.215	8596.44517
880.396	8631.31462
880.576	8688.73492
880.757	8811.72981
880.938	8545.15672
881.119	8778.93761
881.3	8524.63803
881.481	8912.1272
881.662	8893.69009
881.843	9106.654
882.023	8528.74192
882.204	8977.66971
882.385	8500.01311
882.566	8422.01608
882.747	8485.64731
882.927	8705.13806
883.108	8633.3656
883.289	8643.6202
883.469	8545.15672
883.65	8889.59276
883.831	8930.56287
884.011	8879.34912
884.192	8869.10503
884.373	9108.70081
884.553	8660.02659
884.734	8791.23523
884.914	8772.78855
885.095	9082.09088
885.275	8770.73883
885.456	8975.62178
885.636	8739.9908
885.817	9012.48182
885.997	8485.64731
886.178	8910.07871
886.358	8770.73883
886.538	9225.34096
886.719	8928.51453
886.899	9035.0046
887.08	8846.56645
887.26	9135.30783
887.44	8592.34253
887.621	8774.83825
887.801	8645.67106
887.981	8881.39788
888.161	8756.39026
888.342	8813.77917
888.522	8860.90944
888.702	9065.71408
888.882	8780.98726
889.062	8903.93311
889.242	8739.9908
889.423	8979.71762
889.603	8551.31195
889.783	8983.81339
889.963	8787.13609
890.143	8865.00727
890.323	8840.41919
890.503	8811.72981
890.683	8524.63803
890.863	8834.27176
891.043	8641.56931
891.223	8885.49536
891.403	8774.83825
891.583	9075.94971
891.763	8467.17562
891.943	8887.54407
892.122	8668.22934
892.302	8590.29118
892.482	8604.65023
892.662	8776.88794
892.842	8561.5703
893.022	8504.11746
893.201	8479.49025
893.381	8442.54429
893.561	8713.33918
893.741	8998.14804
893.92	8385.06044
894.1	8647.72191
894.28	8343.99126
894.459	8557.46702
894.639	8514.37798
894.819	8565.67351
894.998	8409.69823
895.178	8596.44517
895.357	8493.85646
895.537	8463.07059
895.716	8364.52682
895.896	8446.64971
896.075	8360.41986
896.255	8335.77649
896.434	8206.35255
896.614	8364.52682
896.793	7982.24194
896.973	8300.86025
897.152	8064.51217
897.331	8565.67351
897.511	8105.63515
897.69	8366.58027
897.87	8011.04022
898.049	7846.42449
898.228	7893.765
898.407	7862.89199
898.587	7850.54149
898.766	7959.61191
898.945	7832.01433
899.124	8033.66464
899.304	7838.19024
899.483	7797.01399
899.662	7298.10878
899.841	7531.22498
900.02	7248.56147
900.199	7432.23604
900.378	7246.49673
900.557	7475.54982
900.737	7192.80557
900.916	7390.97592
901.095	7232.04289
901.274	7244.43196
901.453	7085.37824
901.632	7456.98794
901.811	7041.97701
901.989	7207.26235
902.168	6915.85057
902.347	7298.10878
902.526	6828.9605
902.705	6926.19197
902.884	6702.6914
903.063	7044.04396
903.242	6930.32837
903.42	7015.10463
903.599	6942.73702
903.778	7137.03351
903.957	6669.55753
904.135	6986.1609
904.314	6690.26689
904.493	6930.32837
904.672	6387.6809
904.85	6373.16093
905.029	6196.75557
905.207	6354.49071
905.386	6277.71549
905.565	6319.21958
905.743	6271.48907
905.922	5993.1602
906.1	5922.47224
906.279	6339.96812
906.457	5932.86924
906.636	6381.45819
906.814	6140.6855
906.993	6047.19732
907.171	5984.84538
907.35	6088.7535
907.528	5512.36107
907.707	5768.52771
907.885	5360.1587
908.063	5855.91749
908.242	5501.94024
908.42	5710.24473
908.598	5401.87043
908.777	5522.7813
908.955	5635.28228
909.133	5706.08095
909.311	5280.88057
909.49	5299.66002
909.668	5245.40309
909.846	5551.95482
910.024	5443.57277
910.202	5701.91708
910.38	5466.50505
910.559	5741.47006
910.737	5589.45684
910.915	5870.47841
911.093	5656.10825
911.271	5418.55249
911.449	5568.62333
911.627	5560.28926
911.805	5009.41118
911.983	5335.12715
912.161	5366.41606
912.339	5647.77815
912.517	5479.01236
912.695	5643.61295
912.872	5720.65376
913.05	5849.67675
913.228	5670.68503
913.406	5932.86924
913.584	5572.79022
913.762	5531.11706
913.939	5483.18128
914.117	5670.68503
914.295	5228.70547
914.473	5816.38918
914.65	5499.85601
914.828	5699.83511
915.006	5724.81721
915.184	5781.01452
915.361	5372.6732
915.539	5518.61328
915.716	5172.33999
915.894	5322.61011
916.072	5153.54772
916.249	5353.90113
916.427	5209.91887
916.604	5428.97802
916.782	5239.14166
916.959	5616.53689
917.137	5289.22722
917.314	5403.95577
917.492	5184.86712
917.669	5441.48788
917.847	4915.34984
918.024	5237.05447
918.201	4971.79223
918.379	5189.04264
918.556	4833.79242
918.733	4948.79921
918.911	4582.63011
919.088	5053.2905
919.265	4658.01285
919.442	4950.8896
919.62	4829.60906
919.797	5339.29931
919.974	4909.07742
920.151	5015.68028
920.328	4783.586
920.506	4952.97996
920.683	4720.80958
920.86	4695.69332
921.037	4653.82568
921.214	4622.41906
921.391	4701.97269
921.568	4823.33383
921.745	4676.854
921.922	4752.20034
922.099	4672.66723
922.276	4823.33383
922.453	4653.82568
922.63	4708.25186
922.807	4410.81761
922.984	4771.03235
923.161	4396.14385
923.338	4557.49611
923.514	4285.00798
923.691	4461.11953
923.868	4236.7604
924.045	4645.45107
924.222	4213.68148
924.399	4620.3251
924.575	4096.14914
924.752	4461.11953
924.929	4301.7871
925.105	4280.81299
925.282	3665.35041
925.459	4150.72593
925.635	3959.64586
925.812	4230.4664
925.989	3993.25472
926.165	4007.95695
926.342	3654.8328
926.518	4001.65612
926.695	3680.07426
926.871	4091.95034
927.048	3568.57062
927.224	3730.54891
927.401	3488.59243
927.577	3675.86754
927.754	3330.66447
927.93	3640.10735
928.107	3604.34169
928.283	3579.09208
928.459	3459.12015
928.636	3688.48747
928.812	3488.59243
928.988	3734.75463
929.165	3318.02597
929.341	3621.17327
929.517	3387.52999
929.693	3499.11739
929.87	3273.78636
930.046	3259.03816
930.222	3060.91274
930.398	3254.82424
930.574	3136.80745
930.751	3385.42408
930.927	3048.26164
931.103	3307.49341
931.279	2955.47006
931.455	2991.32484
931.631	2706.48151
931.807	3138.91534
931.983	2790.90602
932.159	2714.92491
932.335	2666.37251
932.511	2862.64972
932.687	2636.81558
932.863	2723.36811
933.039	2603.03324
933.215	2928.04881
933.391	2643.14941
933.566	2862.64972
933.742	2742.36453
933.918	2600.92174
934.094	2459.42446
934.27	2736.03251
934.445	2214.33142
934.621	2537.57117
934.797	2281.95626
934.973	2315.76515
935.148	1950.09341
935.324	2229.12513
935.5	1774.58555
935.675	2114.99156
935.851	1776.70029
936.027	2051.57414
936.202	1802.07688
936.378	1647.69462
936.553	1569.44047
936.729	1747.09354
936.904	1535.60012
937.08	1584.2455
937.255	1269.10683
937.431	1283.91152
937.606	1053.40037
937.782	1180.28161
937.957	922.31091
938.133	1286.02648
938.308	903.28403
938.483	956.13798
938.659	833.52443
938.834	951.90949
939.009	793.36416
939.185	934.99584
939.36	886.37178
939.535	812.38703
939.71	795.47777
939.886	861.00439
940.061	858.89049
940.236	708.82785
940.411	664.45318
940.586	605.29508
940.761	601.06987
940.937	683.47028
941.112	592.61962
941.287	753.20736
941.462	541.92251
941.637	522.91312
941.812	402.54813
941.987	554.59606
942.162	512.35284
942.337	510.24083
942.512	368.7707
942.687	457.4453
942.862	442.66424
943.037	525.02522
943.212	448.99889
943.386	453.22206
943.561	370.88166
943.736	436.32974
943.911	347.662
944.086	377.21465
944.26	402.54813
944.435	372.99264
944.61	446.88733
944.785	413.10444
944.959	394.10337
945.134	396.21454
945.309	318.11274
945.483	484.89782
945.658	425.77255
945.833	394.10337
946.007	370.88166
946.182	448.99889
946.357	385.65888
946.531	499.68099
946.706	429.99538
946.88	432.10681
947.055	307.56028
947.229	419.43842
947.404	343.44047
947.578	442.66424
947.752	423.66115
947.927	474.33885
948.101	427.88395
948.276	518.68897
948.45	351.8836
948.624	501.79293
948.799	508.12883
948.973	391.99222
949.147	402.54813
949.321	476.45062
949.496	404.65936
949.67	563.04536
949.844	438.44123
950.018	396.21454
950.193	480.67419
950.367	461.6686
950.541	379.32569
950.715	474.33885
950.889	385.65888
951.063	516.57691
951.237	415.21575
951.411	573.6073
951.585	448.99889
951.759	605.29508
951.933	478.56239
952.107	525.02522
952.281	394.10337
952.455	453.22206
952.629	539.8103
952.803	634.87293
952.977	567.2701
953.151	556.70836
953.325	510.24083
953.499	508.12883
953.672	434.21827
953.846	497.56906
954.02	394.10337
954.194	508.12883
954.368	453.22206
954.541	512.35284
954.715	360.32701
954.889	419.43842
955.062	364.54882
955.236	556.70836
955.41	453.22206
955.583	508.12883
955.757	457.4453
955.93	489.12151
956.104	461.6686
956.278	527.13733
956.451	353.99443
956.625	284.34646
956.798	394.10337
956.972	508.12883
957.145	415.21575
957.319	472.22711
957.492	429.99538
957.665	408.88187
957.839	520.80104
958.012	419.43842
958.185	455.33367
958.359	510.24083
958.532	451.11047
958.705	468.00366
958.879	429.99538
959.052	567.2701
959.225	440.55273
959.398	607.4077
959.572	525.02522
959.745	451.11047
959.918	506.01685
960.091	455.33367
960.264	432.10681
960.438	531.3616
960.611	429.99538
960.784	516.57691
960.957	436.32974
961.13	533.47375
961.303	419.43842
961.476	448.99889
961.649	446.88733
961.822	419.43842
961.995	347.662
962.168	387.76998
962.341	368.7707
962.514	474.33885
962.686	427.88395
962.859	461.6686
963.032	413.10444
963.205	381.43673
963.378	427.88395
963.551	444.77578
963.723	351.8836
963.896	444.77578
964.069	406.7706
964.242	337.1083
964.414	326.55503
964.587	396.21454
964.76	351.8836
964.932	503.90488
965.105	362.43791
965.278	468.00366
965.45	425.77255
965.623	413.10444
965.795	421.54978
965.968	385.65888
966.14	309.67074
966.313	413.10444
966.485	360.32701
966.658	440.55273
966.83	356.10527
967.003	432.10681
967.175	461.6686
967.348	423.66115
967.52	337.1083
967.692	421.54978
967.865	387.76998
968.037	406.7706
968.209	417.32708
968.382	368.7707
968.554	294.89792
968.726	362.43791
968.898	322.33385
969.071	318.11274
969.243	250.58493
969.415	284.34646
969.587	297.00827
969.759	301.22902
969.932	313.8917
970.104	278.01581
970.276	278.01581
970.448	252.69488
970.62	161.98467
970.792	328.66565
970.964	271.68532
971.136	288.56699
971.308	242.1453
971.48	339.219
971.652	320.22329
971.824	343.44047
971.996	259.02486
972.168	259.02486
972.339	233.70599
972.511	275.90563
972.683	250.58493
972.855	284.34646
973.027	288.56699
973.199	199.95188
973.37	244.25518
973.542	237.92561
973.714	269.5752
973.886	212.60907
974.057	210.49949
974.229	259.02486
974.401	324.44443
974.572	284.34646
974.744	248.47499
974.915	330.77629
975.087	227.37671
975.259	252.69488
975.43	269.5752
975.602	242.1453
975.773	197.84241
975.945	176.7489
976.116	178.85816
976.288	176.7489
976.459	124.02423
976.63	259.02486
976.802	168.31207
976.973	199.95188
977.145	210.49949
977.316	240.03545
977.487	183.07674
977.659	244.25518
977.83	166.20292
978.001	126.13296
978.172	157.7665
978.344	140.89469
978.515	166.20292
978.686	157.7665
978.857	132.45929
979.028	256.91485
979.2	130.35049
979.371	115.58952
979.542	168.31207
979.713	134.5681
979.884	183.07674
980.055	202.06136
980.226	115.58952
980.397	221.0476
980.568	140.89469
980.739	157.7665
980.91	124.02423
981.081	183.07674
981.252	176.7489
981.423	183.07674
981.594	157.7665
981.765	191.51415
981.936	149.33043
982.106	151.43941
982.277	132.45929
982.448	168.31207
982.619	140.89469
982.79	58.66448
982.96	140.89469
983.131	140.89469
983.302	195.73297
983.472	166.20292
983.643	252.69488
983.814	83.96248
983.984	115.58952
984.155	109.26371
984.326	79.74592
984.496	52.34049
984.667	41.80097
984.837	168.31207
985.008	102.93811
985.178	161.98467
985.349	117.69816
985.519	140.89469
985.69	105.04662
985.86	176.7489
986.031	90.28749
986.201	126.13296
986.371	27.04663
986.542	60.77252
986.712	111.37229
986.882	109.26371
987.053	140.89469
987.223	109.26371
987.393	128.24171
987.563	64.98867
987.734	107.15516
987.904	67.09678
988.074	81.85419
988.244	124.02423
988.414	92.39587
988.585	64.98867
988.755	128.24171
988.925	111.37229
989.095	115.58952
989.265	124.02423
989.435	54.44846
989.605	90.28749
989.775	86.0708
989.945	117.69816
990.115	14.40096
990.285	79.74592
990.455	143.00359
990.625	48.12461
990.795	39.69314
990.965	109.26371
991.134	113.4809
991.304	128.24171
991.474	83.96248
991.644	90.28749
991.814	113.4809
991.984	113.4809
992.153	86.0708
992.323	-19.31659
992.493	128.24171
992.662	90.28749
992.832	126.13296
993.002	60.77252
993.171	-0.35123
993.341	77.63768
993.511	111.37229
993.68	164.09378
993.85	88.17913
994.019	71.31307
994.189	33.36978
994.358	69.20492
994.528	43.90883
994.697	60.77252
994.867	64.98867
995.036	100.82962
995.206	100.82962
995.375	121.91552
995.544	81.85419
995.714	64.98867
995.883	31.26204
996.052	-23.53085
996.222	62.88058
996.391	-19.31659
996.56	56.55646
996.73	16.50851
996.899	86.0708
997.068	64.98867
997.237	64.98867
997.406	52.34049
997.576	56.55646
997.745	50.23254
997.914	60.77252
998.083	31.26204
998.252	1.75615
998.421	50.23254
998.59	48.12461
998.759	58.66448
998.928	58.66448
999.097	43.90883
999.266	35.47754
999.435	-27.74501
999.604	100.82962
999.773	73.42125
999.942	56.55646
1000.111	52.34049
1000.28	-36.17303
1000.448	64.98867
1000.617	18.61609
1000.786	83.96248
1000.955	48.12461
1001.124	-31.95906
1001.292	77.63768
1001.461	-10.88778
1001.63	20.72369
1001.798	67.09678
1001.967	18.61609
1002.136	77.63768
1002.304	39.69314
1002.473	14.40096
1002.642	132.45929
1002.81	12.29343
1002.979	56.55646
1003.147	50.23254
1003.316	90.28749
1003.484	83.96248
1003.653	24.93896
1003.821	-17.20943
1003.99	14.40096
1004.158	39.69314
1004.327	83.96248
1004.495	-6.67324
1004.663	14.40096
1004.832	12.29343
1005	52.34049
1005.168	58.66448
1005.337	24.93896
1005.505	24.93896
1005.673	16.50851
1005.842	67.09678
1006.01	75.52945
1006.178	98.72115
1006.346	31.26204
1006.514	75.52945
1006.683	50.23254
1006.851	-15.10224
1007.019	56.55646
1007.187	90.28749
1007.355	52.34049
1007.523	-36.17303
1007.691	-31.95906
1007.859	10.18593
1008.027	31.26204
1008.195	35.47754
1008.363	22.83131
1008.531	-27.74501
1008.699	58.66448
1008.867	39.69314
1009.035	31.26204
1009.203	46.01671
1009.37	-4.56592
1009.538	1.75615
1009.706	41.80097
1009.874	117.69816
1010.042	8.07845
1010.209	35.47754
1010.377	83.96248
1010.545	77.63768
1010.713	50.23254
1010.88	-6.67324
1011.048	33.36978
1011.216	-61.45468
1011.383	39.69314
1011.551	31.26204
1011.718	-29.85205
1011.886	14.40096
1012.054	22.83131
1012.221	-48.81431
1012.389	-8.78052
1012.556	69.20492
1012.724	39.69314
1012.891	18.61609
1013.058	64.98867
1013.226	-40.38689
1013.393	-0.35123
1013.561	69.20492
1013.728	-53.02787
1013.895	41.80097
1014.063	-6.67324
1014.23	1.75615
1014.397	10.18593
1014.565	-40.38689
1014.732	-10.88778
1014.899	-10.88778
1015.066	39.69314
1015.233	33.36978
1015.401	64.98867
1015.568	62.88058
1015.735	16.50851
1015.902	-19.31659
1016.069	31.26204
1016.236	-29.85205
1016.403	43.90883
1016.57	-19.31659
1016.737	14.40096
1016.904	35.47754
1017.071	-44.60065
1017.238	33.36978
1017.405	33.36978
1017.572	77.63768
1017.739	31.26204
1017.906	58.66448
1018.073	22.83131
1018.24	20.72369
1018.407	109.26371
1018.573	33.36978
1018.74	41.80097
1018.907	29.15432
1019.074	35.47754
1019.241	-0.35123
1019.407	27.04663
1019.574	20.72369
1019.741	-2.45859
1019.907	5.97099
1020.074	-36.17303
1020.241	31.26204
1020.407	22.83131
1020.574	73.42125
1020.74	12.29343
1020.907	48.12461
1021.073	24.93896
1021.24	-61.45468
1021.406	-6.67324
1021.573	69.20492
1021.739	-59.34802
1021.906	-25.63794
1022.072	-25.63794
1022.239	-15.10224
1022.405	105.04662
1022.571	16.50851
1022.738	52.34049
1022.904	37.58533
1023.07	75.52945
1023.237	50.23254
1023.403	-2.45859
1023.569	14.40096
1023.735	12.29343
1023.902	10.18593
1024.068	64.98867
1024.234	-21.42373
1024.4	33.36978
1024.566	67.09678
1024.732	-19.31659
1024.898	-4.56592
1025.065	77.63768
1025.231	58.66448
1025.397	67.09678
1025.563	-27.74501
1025.729	22.83131
1025.895	31.26204
1026.061	81.85419
1026.227	31.26204
1026.392	16.50851
1026.558	39.69314
1026.724	22.83131
1026.89	-31.95906
1027.056	-25.63794
1027.222	-2.45859
1027.388	60.77252
1027.553	-19.31659
1027.719	41.80097
1027.885	-8.78052
1028.051	81.85419
1028.216	27.04663
1028.382	-19.31659
1028.548	-6.67324
1028.713	-23.53085
1028.879	-6.67324
1029.045	-10.88778
1029.21	33.36978
1029.376	-19.31659
1029.541	-53.02787
1029.707	16.50851
1029.873	-2.45859
1030.038	-6.67324
1030.204	-23.53085
1030.369	22.83131
1030.534	41.80097
1030.7	46.01671
1030.865	60.77252
1031.031	-2.45859
1031.196	46.01671
1031.361	-12.99502
1031.527	29.15432
1031.692	31.26204
1031.857	-17.20943
1032.023	-0.35123
1032.188	67.09678
1032.353	31.26204
1032.518	31.26204
1032.684	29.15432
1032.849	-53.02787
1033.014	62.88058
1033.179	-17.20943
1033.344	8.07845
1033.509	16.50851
1033.674	-23.53085
1033.839	14.40096
1034.004	-21.42373
1034.17	16.50851
1034.335	48.12461
1034.5	10.18593
1034.664	69.20492
1034.829	-12.99502
1034.994	1.75615
1035.159	-69.8811
1035.324	27.04663
1035.489	16.50851
1035.654	-23.53085
1035.819	18.61609
1035.984	-53.02787
1036.148	48.12461
1036.313	31.26204
1036.478	-65.66794
1036.643	14.40096
1036.807	31.26204
1036.972	67.09678
1037.137	60.77252
1037.301	-50.9211
1037.466	-2.45859
1037.631	-19.31659
1037.795	58.66448
1037.96	35.47754
1038.124	3.86356
1038.289	81.85419
1038.454	22.83131
1038.618	64.98867
1038.783	79.74592
1038.947	-34.06606
1039.111	-25.63794
1039.276	31.26204
1039.44	-19.31659
1039.605	81.85419
1039.769	5.97099
1039.933	-15.10224
1040.098	-36.17303
1040.262	67.09678
1040.426	18.61609
1040.591	1.75615
1040.755	8.07845
1040.919	39.69314
1041.083	5.97099
1041.248	16.50851
1041.412	27.04663
1041.576	-57.24133
1041.74	1.75615
1041.904	75.52945
1042.068	16.50851
1042.232	16.50851
1042.397	50.23254
1042.561	119.80683
1042.725	60.77252
1042.889	-25.63794
1043.053	39.69314
1043.217	-17.20943
1043.381	64.98867
1043.544	5.97099
1043.708	79.74592
1043.872	43.90883
1044.036	73.42125
1044.2	20.72369
1044.364	10.18593
1044.528	22.83131
1044.691	-15.10224
1044.855	-17.20943
1045.019	14.40096
1045.183	31.26204
1045.346	-10.88778
1045.51	48.12461
1045.674	60.77252
1045.837	75.52945
1046.001	18.61609
1046.165	69.20492
1046.328	3.86356
1046.492	35.47754
1046.655	8.07845
1046.819	43.90883
1046.983	31.26204
1047.146	-23.53085
1047.31	14.40096
1047.473	43.90883
1047.636	-2.45859
1047.8	56.55646
1047.963	1.75615
1048.127	73.42125
1048.29	-0.35123
