Data from mixed_try1_USB4F045381__36__00058.txt Node

Date: Thu Apr 03 19:37:53 EDT 2025
User: mmckonesweet
Spectrometer: USB4F04538
Trigger mode: 4
Integration Time (sec): 2.700000E-3
Scans to average: 1
Electric dark correction enabled: true
Nonlinearity correction enabled: true
Boxcar width: 0
XAxis mode: Wavelengths
Number of Pixels in Spectrum: 3648
>>>>>Begin Spectral Data<<<<<
345.52	19.14299
345.736	19.14299
345.952	19.14299
346.168	23.35822
346.384	-27.21824
346.6	14.92785
346.816	-35.64629
347.032	-10.36097
347.248	-1.93175
347.464	40.22009
347.68	50.75953
347.896	-10.36097
348.112	-41.96706
348.328	-50.3944
348.544	-18.7898
348.76	6.49786
348.975	57.08346
349.191	-33.53931
349.407	14.92785
349.623	-4.03909
349.839	-58.82135
350.055	-65.14129
350.27	-46.18078
350.486	-10.36097
350.702	-39.86016
350.918	-1.93175
351.133	48.65159
351.349	-1.93175
351.565	-50.3944
351.781	10.7128
351.996	6.49786
352.212	48.65159
352.428	2.283
352.644	-107.26832
352.859	-31.43231
353.075	-1.93175
353.291	14.92785
353.506	-8.2537
353.722	-14.57544
353.938	-14.57544
354.153	0.17561
354.369	33.89672
354.584	-41.96706
354.8	-6.14641
355.016	-44.07393
355.231	6.49786
355.447	-31.43231
355.662	21.25059
355.878	2.283
356.093	2.283
356.309	-18.7898
356.524	-54.60793
356.74	-44.07393
356.955	-10.36097
357.171	6.49786
357.386	-18.7898
357.602	23.35822
357.817	-48.28761
358.033	6.49786
358.248	48.65159
358.464	-41.96706
358.679	6.49786
358.895	59.19149
359.11	-14.57544
359.325	-35.64629
359.541	57.08346
359.756	14.92785
359.972	-16.68263
360.187	-18.7898
360.402	-25.11117
360.618	-44.07393
360.833	4.39042
361.048	40.22009
361.264	-56.71465
361.479	-44.07393
361.694	-8.2537
361.909	46.54368
362.125	-10.36097
362.34	57.08346
362.555	61.29953
362.77	-25.11117
362.986	-46.18078
363.201	17.0354
363.416	82.38126
363.631	40.22009
363.847	57.08346
364.062	36.00449
364.277	-52.50118
364.492	4.39042
364.707	-39.86016
364.922	23.35822
365.138	-6.14641
365.353	19.14299
365.568	59.19149
365.783	21.25059
365.998	40.22009
366.213	23.35822
366.428	73.9483
366.643	57.08346
366.858	-8.2537
367.073	-6.14641
367.288	-8.2537
367.503	-6.14641
367.718	33.89672
367.933	71.84011
368.148	-52.50118
368.363	76.05651
368.578	-16.68263
368.793	-14.57544
369.008	8.60532
369.223	31.78897
369.438	-6.14641
369.653	61.29953
369.868	-18.7898
370.083	67.62381
370.298	33.89672
370.513	2.283
370.728	50.75953
370.943	-48.28761
371.157	4.39042
371.372	27.57355
371.587	-50.3944
371.802	31.78897
372.017	40.22009
372.232	8.60532
372.446	21.25059
372.661	8.60532
372.876	27.57355
373.091	132.98649
373.306	14.92785
373.52	48.65159
373.735	19.14299
373.95	-18.7898
374.165	0.17561
374.379	2.283
374.594	-90.41875
374.809	73.9483
375.023	63.4076
375.238	-25.11117
375.453	23.35822
375.667	-54.60793
375.882	-27.21824
376.097	23.35822
376.311	19.14299
376.526	-29.32529
376.741	25.46587
376.955	-23.00407
377.17	6.49786
377.384	38.11228
377.599	65.5157
377.813	29.68125
378.028	-44.07393
378.242	33.89672
378.457	29.68125
378.672	14.92785
378.886	-20.89695
379.101	14.92785
379.315	42.32793
379.53	-35.64629
379.744	31.78897
379.958	-31.43231
380.173	-69.35446
380.387	-10.36097
380.602	-29.32529
380.816	-52.50118
381.031	36.00449
381.245	-44.07393
381.459	-8.2537
381.674	17.0354
381.888	-16.68263
382.103	-6.14641
382.317	-52.50118
382.531	48.65159
382.746	-16.68263
382.96	50.75953
383.174	-52.50118
383.388	-8.2537
383.603	-50.3944
383.817	-29.32529
384.031	31.78897
384.246	8.60532
384.46	65.5157
384.674	88.70622
384.888	6.49786
385.103	31.78897
385.317	14.92785
385.531	23.35822
385.745	19.14299
385.959	31.78897
386.174	-16.68263
386.388	19.14299
386.602	-8.2537
386.816	14.92785
387.03	54.97546
387.244	63.4076
387.458	48.65159
387.672	10.7128
387.887	10.7128
388.101	-20.89695
388.315	-23.00407
388.529	2.283
388.743	27.57355
388.957	52.86748
389.171	46.54368
389.385	92.92297
389.599	44.4358
389.813	57.08346
390.027	23.35822
390.241	31.78897
390.455	-18.7898
390.669	2.283
390.883	-33.53931
391.097	57.08346
391.311	6.49786
391.525	-44.07393
391.738	59.19149
391.952	31.78897
392.166	-35.64629
392.38	-44.07393
392.594	-14.57544
392.808	-39.86016
393.022	-8.2537
393.236	-44.07393
393.449	48.65159
393.663	-69.35446
393.877	-16.68263
394.091	27.57355
394.305	6.49786
394.518	42.32793
394.732	-1.93175
394.946	76.05651
395.16	-6.14641
395.373	-20.89695
395.587	42.32793
395.801	-35.64629
396.015	10.7128
396.228	0.17561
396.442	-48.28761
396.656	-14.57544
396.869	-16.68263
397.083	-1.93175
397.297	-4.03909
397.51	40.22009
397.724	57.08346
397.938	23.35822
398.151	-10.36097
398.365	-16.68263
398.578	101.35674
398.792	69.73195
399.005	23.35822
399.219	50.75953
399.433	48.65159
399.646	71.84011
399.86	-12.46822
400.073	-1.93175
400.287	-1.93175
400.5	27.57355
400.714	29.68125
400.927	86.59788
401.141	-25.11117
401.354	19.14299
401.567	-10.36097
401.781	-10.36097
401.994	31.78897
402.208	-50.3944
402.421	33.89672
402.635	27.57355
402.848	42.32793
403.061	-69.35446
403.275	0.17561
403.488	10.7128
403.701	42.32793
403.915	48.65159
404.128	44.4358
404.341	88.70622
404.555	25.46587
404.768	50.75953
404.981	-18.7898
405.195	-16.68263
405.408	31.78897
405.621	65.5157
405.834	-41.96706
406.048	65.5157
406.261	-20.89695
406.474	-10.36097
406.687	19.14299
406.9	14.92785
407.114	33.89672
407.327	27.57355
407.54	19.14299
407.753	59.19149
407.966	-18.7898
408.179	23.35822
408.392	50.75953
408.605	52.86748
408.819	-29.32529
409.032	67.62381
409.245	6.49786
409.458	2.283
409.671	12.82031
409.884	69.73195
410.097	31.78897
410.31	40.22009
410.523	-8.2537
410.736	-50.3944
410.949	6.49786
411.162	-23.00407
411.375	40.22009
411.588	-8.2537
411.801	0.17561
412.014	48.65159
412.227	14.92785
412.44	73.9483
412.653	-27.21824
412.865	48.65159
413.078	6.49786
413.291	82.38126
413.504	82.38126
413.717	36.00449
413.93	-10.36097
414.143	40.22009
414.356	65.5157
414.568	25.46587
414.781	10.7128
414.994	-4.03909
415.207	57.08346
415.42	2.283
415.632	101.35674
415.845	52.86748
416.058	31.78897
416.271	19.14299
416.483	73.9483
416.696	-6.14641
416.909	8.60532
417.121	-16.68263
417.334	-25.11117
417.547	92.92297
417.759	52.86748
417.972	88.70622
418.185	19.14299
418.397	33.89672
418.61	31.78897
418.823	92.92297
419.035	48.65159
419.248	97.13981
419.46	-35.64629
419.673	40.22009
419.885	0.17561
420.098	38.11228
420.311	-18.7898
420.523	40.22009
420.736	19.14299
420.948	-41.96706
421.161	59.19149
421.373	65.5157
421.586	-1.93175
421.798	52.86748
422.01	-23.00407
422.223	69.73195
422.435	25.46587
422.648	25.46587
422.86	12.82031
423.073	29.68125
423.285	10.7128
423.497	57.08346
423.71	14.92785
423.922	128.76891
424.134	65.5157
424.347	99.24826
424.559	107.68229
424.771	78.16474
424.984	50.75953
425.196	61.29953
425.408	-18.7898
425.621	19.14299
425.833	128.76891
426.045	109.79086
426.257	-16.68263
426.47	-6.14641
426.682	124.55141
426.894	57.08346
427.106	-1.93175
427.318	19.14299
427.531	73.9483
427.743	40.22009
427.955	126.66015
428.167	48.65159
428.379	61.29953
428.591	61.29953
428.804	111.89944
429.016	52.86748
429.228	-1.93175
429.44	124.55141
429.652	33.89672
429.864	50.75953
430.076	52.86748
430.288	65.5157
430.5	2.283
430.712	84.48956
430.924	-14.57544
431.136	36.00449
431.348	19.14299
431.56	99.24826
431.772	36.00449
431.984	57.08346
432.196	69.73195
432.408	-10.36097
432.62	52.86748
432.832	86.59788
433.044	50.75953
433.256	25.46587
433.468	27.57355
433.679	14.92785
433.891	8.60532
434.103	118.22533
434.315	69.73195
434.527	40.22009
434.739	40.22009
434.95	48.65159
435.162	122.44269
435.374	116.11668
435.586	63.4076
435.798	84.48956
436.009	65.5157
436.221	73.9483
436.433	82.38126
436.645	141.42191
436.856	65.5157
437.068	48.65159
437.28	143.53082
437.491	95.03138
437.703	78.16474
437.915	50.75953
438.126	120.334
438.338	124.55141
438.55	42.32793
438.761	99.24826
438.973	105.57375
439.184	86.59788
439.396	73.9483
439.608	120.334
439.819	124.55141
440.031	48.65159
440.242	82.38126
440.454	179.38548
440.665	118.22533
440.877	185.7134
441.088	101.35674
441.3	143.53082
441.511	25.46587
441.723	111.89944
441.934	31.78897
442.146	57.08346
442.357	111.89944
442.569	154.07568
442.78	46.54368
442.991	84.48956
443.203	44.4358
443.414	84.48956
443.626	154.07568
443.837	132.98649
444.048	160.40285
444.26	158.29377
444.471	122.44269
444.682	126.66015
444.894	116.11668
445.105	141.42191
445.316	99.24826
445.528	183.60407
445.739	90.81458
445.95	141.42191
446.161	99.24826
446.373	189.93211
446.584	194.1509
446.795	137.20416
447.006	158.29377
447.217	132.98649
447.429	124.55141
447.64	92.92297
447.851	151.96666
448.062	149.85767
448.273	120.334
448.484	82.38126
448.695	97.13981
448.907	194.1509
449.118	149.85767
449.329	160.40285
449.54	185.7134
449.751	175.16697
449.962	179.38548
450.173	135.09531
450.384	204.69824
450.595	154.07568
450.806	135.09531
451.017	211.02688
451.228	192.04149
451.439	242.67277
451.65	234.23344
451.861	221.57502
452.072	244.78265
452.283	204.69824
452.494	99.24826
452.705	221.57502
452.915	246.89255
453.126	175.16697
453.337	223.68471
453.548	194.1509
453.759	208.91732
453.97	270.10273
454.181	236.34324
454.391	284.87402
454.602	217.35571
454.813	194.1509
455.024	244.78265
455.235	194.1509
455.445	219.46535
455.656	211.02688
455.867	272.21286
456.078	175.16697
456.288	263.77245
456.499	227.90414
456.71	362.96564
456.921	324.97208
457.131	350.30049
457.342	242.67277
457.553	308.08789
457.763	192.04149
457.974	337.63597
458.184	272.21286
458.395	348.18969
458.606	246.89255
458.816	335.52528
459.027	339.74668
459.237	375.63139
459.448	428.41181
459.659	356.63299
459.869	377.74241
460.08	381.9645
460.29	369.29844
460.501	453.74996
460.711	388.29776
460.922	445.30366
461.132	422.07762
461.343	436.85761
461.553	430.52323
461.764	578.36028
461.974	411.52097
462.184	428.41181
462.395	510.76883
462.605	512.88085
462.816	487.53762
463.026	563.57345
463.236	483.31395
463.447	597.37286
463.657	517.10492
463.867	648.07811
464.078	555.12413
464.288	631.17557
464.498	698.79028
464.709	656.52967
464.919	633.28834
465.129	692.4509
465.339	660.75553
465.55	660.75553
465.76	656.52967
465.97	774.87045
466.18	734.71533
466.391	939.75276
466.601	819.25658
466.811	876.33038
467.021	918.61119
467.231	1041.24186
467.441	827.71155
467.651	1108.90884
467.862	988.38108
468.072	1066.61634
468.282	1157.54755
468.492	950.32382
468.702	1037.01286
468.912	1178.6955
469.122	1146.97372
469.332	1318.27995
469.542	1210.41811
469.752	1470.56253
469.962	1369.04031
470.172	1375.3854
470.382	1311.93497
470.592	1521.32364
470.802	1424.0314
471.012	1603.80918
471.222	1572.08423
471.432	1479.02274
471.642	1608.03914
471.852	1834.32541
472.062	1726.47413
472.272	1882.96046
472.482	1823.75224
472.691	1891.41846
472.901	2026.7339
473.111	1882.96046
473.321	1992.9074
473.531	2062.67266
473.741	2109.17857
473.95	2333.1969
474.16	2096.4955
474.37	2240.22014
474.58	2276.14511
474.79	2455.72795
474.999	2381.79095
475.209	2550.77008
475.419	2481.07475
475.628	2590.89195
475.838	2681.6778
476.048	2618.34125
476.258	2734.44948
476.467	3069.8736
476.677	3048.78878
476.886	3107.82232
477.096	2932.79497
477.306	3196.34916
477.515	3103.60604
477.725	3103.60604
477.935	3251.137
478.144	3465.96224
478.354	3352.2538
478.563	3623.80309
478.773	3554.3659
478.982	3705.83875
479.192	3871.92334
479.401	3606.9717
479.611	3457.54117
479.82	3840.39774
480.03	3901.34318
480.239	3974.87552
480.449	3859.31364
480.658	4394.5716
480.868	4281.33737
481.077	4342.15618
481.287	4218.40238
481.496	4415.53395
481.705	4455.35641
481.915	4562.20898
482.124	4539.16721
482.333	4765.27832
482.543	4673.19058
482.752	4633.41195
482.961	4635.50576
483.171	5254.27309
483.38	4773.64776
483.589	5239.66345
483.799	5131.09893
484.008	5160.33403
484.217	5108.12529
484.426	5494.12424
484.636	5281.40224
484.845	5623.30628
485.054	5464.94157
485.263	5748.23485
485.472	5675.37017
485.682	5769.04801
485.891	5617.05762
486.1	5723.25593
486.309	5974.97105
486.518	6184.81616
486.727	6035.24817
486.936	6155.74304
487.146	6089.2729
487.355	6375.75386
487.564	6437.97342
487.773	6551.98828
487.982	6462.85538
488.191	6556.13295
488.4	6334.2625
488.609	6643.14976
488.818	6877.06531
489.027	6810.85335
489.236	6937.04982
489.445	7207.77864
489.654	7108.62483
489.863	7319.26575
490.072	6881.20279
490.281	7234.62401
490.49	7203.64826
490.698	7257.3364
490.907	7329.58539
491.116	7579.15492
491.325	7478.12772
491.534	7506.9979
491.743	7684.2512
491.952	7678.0706
492.16	7865.46492
492.369	8169.87372
492.578	7735.74887
492.787	8124.6518
492.996	7976.58466
493.204	7910.74317
493.413	7865.46492
493.622	8124.6518
493.831	7995.0988
494.039	8272.61503
494.248	8182.20529
494.457	8512.83893
494.665	8367.09363
494.874	8623.62329
495.083	8385.57375
495.291	8635.92929
495.5	8648.23462
495.709	8652.33624
495.917	8568.23798
496.126	8748.70316
496.335	8683.09607
496.543	8902.39669
496.752	8978.18169
496.96	9035.51646
497.169	8865.51949
497.377	9025.27911
497.586	9062.13151
497.794	9336.30286
498.003	8959.74973
498.211	9550.93072
498.42	9242.21853
498.628	9589.74928
498.837	9281.08372
499.045	9542.75767
499.254	9424.21966
499.462	9706.17112
499.671	9898.05683
499.879	9675.53867
500.087	9804.17189
500.296	9910.30038
500.504	9775.59194
500.713	9896.01619
500.921	10042.90533
501.129	9934.78591
501.338	9908.25983
501.546	10144.86811
501.754	10122.43931
501.962	10238.64316
502.171	10148.9459
502.379	10450.55125
502.587	10275.32987
502.795	10609.39033
503.004	10193.79785
503.212	10513.68883
503.42	10491.28658
503.628	10707.09982
503.837	10619.56972
504.045	10619.56972
504.253	10684.71054
504.461	10902.43615
504.669	10768.15409
504.877	11071.23561
505.085	10937.01582
505.294	11152.55776
505.502	10941.0838
505.71	11195.24506
505.918	10983.79488
506.126	11465.49319
506.334	11093.60092
506.542	11461.43061
506.75	11026.50104
506.958	11428.92854
507.166	11304.99135
507.374	11428.92854
507.582	11528.45837
507.79	11445.17989
507.998	11437.05429
508.206	11625.93505
508.414	11518.30331
508.622	11497.99249
508.83	11544.70597
509.037	11430.95999
509.245	11396.42399
509.453	11934.47619
509.661	11914.18346
509.869	12161.70064
510.077	11774.14088
510.285	11936.50542
510.492	12007.52335
510.7	11946.65144
510.908	12052.1582
511.116	11987.23351
511.324	12342.19585
511.531	12137.35979
511.739	11928.38846
511.947	12504.39188
512.155	12638.17247
512.362	12307.7236
512.57	12376.6661
512.778	12360.44506
512.985	12498.31029
513.193	12490.20142
513.401	12453.71019
513.608	12469.92877
513.816	12632.09212
514.024	12729.3713
514.231	12317.86271
514.439	12599.66265
514.646	12490.20142
514.854	12761.7947
515.061	12484.11969
515.269	12952.2535
515.477	12739.50377
515.684	12931.99418
515.892	13260.13493
516.099	13019.10564
516.307	13023.15711
516.514	13288.48711
516.722	13029.23428
516.929	13527.42384
517.136	13436.31033
517.344	13160.89552
517.551	13237.85762
517.759	13493.00407
517.966	13409.98721
518.173	13401.88766
518.381	13521.34984
518.588	13782.50407
518.796	13636.7504
519.003	13802.74637
519.21	13183.17469
519.418	13853.35084
519.625	13677.23919
519.832	14134.68168
520.039	13620.55451
520.247	14118.49122
520.454	14051.70409
520.661	14312.76811
520.868	14086.10989
521.076	14280.38986
521.283	13920.14606
521.49	14110.39594
521.697	13920.14606
521.904	14351.21671
522.112	14019.32154
522.319	14237.89269
522.526	14195.39467
522.733	14387.64114
522.94	14393.71183
523.147	14513.09933
523.354	14606.1779
523.561	14587.96707
523.768	14478.70005
523.975	14778.16505
524.183	14660.80986
524.39	14994.65908
524.597	14788.28174
524.804	14931.93711
525.011	14925.86722
525.218	15002.75221
525.425	14990.61251
525.632	14846.95824
525.838	15207.10286
526.045	15229.35885
526.252	15097.84623
526.459	15211.1494
526.666	15478.22341
526.873	15490.36331
527.08	15476.2001
527.287	15417.5242
527.494	15249.59158
527.701	15860.64384
527.907	15611.76359
528.114	15814.10406
528.321	15597.60009
528.528	15644.13745
528.735	15636.04396
528.941	15500.47991
529.148	15520.71315
529.355	15880.87871
529.562	15662.34784
529.768	15959.79594
529.975	15447.87375
530.182	15824.22135
530.388	15445.85044
530.595	16101.44749
530.802	15923.37236
531.008	16332.15391
531.215	16263.34437
531.422	16249.17795
531.628	16024.55006
531.835	16196.5606
532.042	16445.49206
532.248	16550.74031
532.455	16469.77962
532.661	16595.27016
532.868	16581.10146
533.074	16850.32623
533.281	16900.9372
533.487	17028.48408
533.694	16694.45418
533.9	17002.16402
534.107	16836.15544
534.313	16957.62341
534.52	16949.52525
534.726	16919.15755
534.933	16856.39946
535.139	17083.1503
535.345	16965.72161
535.552	16931.30456
535.758	17334.23654
535.965	17334.23654
536.171	17346.38702
536.377	17354.48741
536.584	17372.71344
536.79	17303.86081
536.996	17257.28599
537.203	17461.82211
537.409	17376.76371
537.615	17595.49653
537.821	17648.16001
538.028	17816.29308
538.234	17656.26229
538.44	17771.72543
538.646	18053.34017
538.853	17763.6224
539.059	17798.06066
539.265	18349.21161
539.471	18016.86825
539.677	18156.68363
539.883	18264.08984
540.09	18393.80184
540.296	18282.32967
540.502	18491.096
540.708	18037.13029
540.914	18393.80184
541.12	18320.83695
541.326	18590.42625
541.532	18519.47513
541.738	18683.68353
541.944	18545.82785
542.15	18878.33428
542.356	18539.74639
542.562	18945.25396
542.768	18722.20527
542.974	19081.13469
543.18	18892.529
543.386	18937.14225
543.592	19393.52704
543.798	19235.29017
544.004	19290.06163
544.21	19616.72447
544.415	19200.80597
544.621	19192.69221
544.827	18957.42164
545.033	19419.90229
545.239	19367.15248
545.445	19969.88554
545.651	19545.70164
545.856	19736.46026
546.062	19409.75788
546.268	19350.92233
546.474	19785.17051
546.679	19387.44054
546.885	19442.22037
547.091	19653.25249
547.297	19377.29646
547.502	19641.07633
547.708	19466.56793
547.914	19590.34396
548.119	20036.87871
548.325	20051.08997
548.531	19821.70479
548.736	20107.93708
548.942	19862.30003
549.147	20105.90677
549.353	20298.80506
549.559	20357.69735
549.764	20432.84092
549.97	20134.3315
550.175	20337.38927
550.381	20329.26615
550.586	20063.27122
550.792	20426.74799
550.997	20140.42262
551.203	20248.03867
551.408	20629.86614
551.614	20568.9263
551.819	20650.18025
552.025	20896.01391
552.23	21089.06615
552.435	21082.9692
552.641	20946.81354
552.846	21221.17577
553.052	20891.95006
553.257	21154.10259
553.462	21123.61624
553.668	20786.29552
553.873	21141.90794
554.078	21200.8501
554.283	21249.6324
554.489	21322.81021
554.694	21454.94999
554.899	21428.52068
555.105	21223.20836
555.31	21420.38872
555.515	21280.12252
555.72	21513.9101
555.925	21082.9692
556.131	21792.49061
556.336	21467.14836
556.541	21544.40802
556.746	21790.45692
556.951	21576.94012
557.156	21349.23681
557.361	21906.38396
557.567	21776.22112
557.772	22242.03187
557.977	21865.70638
558.182	21816.89531
558.387	21881.97723
558.592	22004.0164
558.797	21973.50532
559.002	21981.64152
559.207	22197.27292
559.412	22321.38167
559.617	22427.19005
559.822	22504.51775
560.027	22398.70221
560.232	22260.34286
560.437	22406.84152
560.642	21975.53936
560.847	22187.10068
561.051	22311.2083
561.256	22227.79019
561.461	22524.86801
561.666	22549.28879
561.871	22691.7535
562.076	22372.24986
562.281	22321.38167
562.485	22402.77186
562.69	22522.83297
562.895	22626.62463
563.1	22589.99123
563.305	22276.61955
563.509	22616.44857
563.714	22771.13415
563.919	22891.23279
564.123	22471.95809
564.328	22567.60471
564.533	22616.44857
564.737	22567.60471
564.942	22406.84152
565.147	23235.30892
565.351	22807.77314
565.556	22728.39006
565.761	23019.48677
565.965	22883.09013
566.17	22940.08987
566.374	23109.06884
566.579	23298.43363
566.784	23041.88168
566.988	23129.4293
567.193	23265.85275
567.397	23003.19981
567.602	23438.94798
567.806	23320.83346
568.011	23819.83595
568.215	23536.70588
568.42	23508.19243
568.624	23058.16915
568.828	23428.76528
569.033	23491.89929
569.237	24080.60999
569.442	23618.17621
569.646	23648.72883
569.85	23728.16882
570.055	24039.86098
570.259	24039.86098
570.463	24056.16045
570.668	24037.82356
570.872	23915.58348
571.076	23986.88895
571.281	24198.78835
571.485	23915.58348
571.689	23860.5788
571.893	23775.02016
572.098	24105.05992
572.302	24143.77313
572.506	24164.14891
572.71	24353.65655
572.914	24178.41211
573.119	24064.31025
573.323	24149.88584
573.527	24025.5991
573.731	24744.96913
573.935	24679.74396
574.139	24677.70572
574.343	23893.17391
574.547	24376.07295
574.751	24327.16484
574.955	24355.69439
575.159	24828.5425
575.364	24802.04319
575.568	24571.72032
575.772	24643.05591
575.976	24422.94464
576.18	24573.75844
576.383	24219.16486
576.587	24624.71218
576.791	24645.09411
576.995	24744.96913
577.199	24749.04579
577.403	24563.56788
577.607	25138.40975
577.811	25083.3637
578.015	25166.95278
578.219	24956.96787
578.422	24914.15838
578.626	25065.01538
578.83	25281.1292
579.034	25319.86917
579.238	25350.45389
579.442	25560.4816
579.645	25044.62857
579.849	25513.58033
580.053	25385.11715
580.257	25252.58446
580.46	25122.09964
580.664	25350.45389
580.868	25552.32478
581.071	25385.11715
581.275	25460.56279
581.479	25578.83456
581.682	25721.58526
581.886	25623.69803
582.09	25285.20706
582.293	25845.99
582.497	25774.60937
582.7	26060.14543
582.904	26007.11461
583.107	25748.09715
583.311	25827.63476
583.515	25752.17593
583.718	25984.67886
583.922	26331.4368
584.125	26135.61442
584.329	25815.39802
584.532	26078.50253
584.735	26427.31377
584.939	26211.08578
585.142	26300.83853
585.346	26292.67906
585.549	26582.35634
585.753	26235.56348
585.956	26702.72452
586.159	26515.03411
586.363	26549.71505
586.566	26759.85024
586.769	26602.75736
586.973	26768.01115
587.176	26674.1621
587.379	26317.15757
587.582	26617.03816
587.786	26417.11392
587.989	26827.17847
588.192	26951.63783
588.395	27216.89642
588.599	26627.23877
588.802	26898.58893
589.005	27051.61719
589.208	26961.83965
589.411	26904.7099
589.615	26894.50828
589.818	27459.72972
590.021	27220.9775
590.224	27255.66689
590.427	27269.95087
590.63	27208.73427
590.833	27286.27549
591.036	26974.08189
591.239	27520.95104
591.442	27074.062
591.645	27155.68086
591.848	27545.43988
592.051	27596.45886
592.254	27161.80236
592.457	27302.6002
592.66	27459.72972
592.863	27976.06354
593.066	27704.62163
593.269	27792.37879
593.472	27835.23772
593.675	28345.50161
593.878	28216.90857
594.081	28439.39764
594.284	28151.59314
594.486	28308.7603
594.689	28994.65461
594.892	28157.71641
595.095	28412.86158
595.298	28272.01934
595.5	28357.74879
595.703	28827.25283
595.906	28259.77244
596.109	28329.17209
596.311	28041.37591
596.514	28237.31988
596.717	28288.34862
596.92	28312.84265
597.122	28276.10166
597.325	27971.98156
597.528	28431.23268
597.73	29155.93853
597.933	28200.57961
598.136	28927.28476
598.338	28482.26397
598.541	28959.94879
598.743	28606.78312
598.946	28661.8994
599.148	28651.69262
599.351	28451.64512
599.554	28598.61781
599.756	28659.85804
599.959	29435.64885
600.161	29100.81545
600.363	29059.98402
600.566	29094.69071
600.768	29051.81779
600.971	29096.73229
601.173	28915.03582
601.376	29260.06198
601.578	29268.22864
601.78	29311.10387
601.983	29268.22864
602.185	29186.56279
602.388	29294.7704
602.59	28982.40546
602.792	28982.40546
602.995	29333.56252
603.197	29382.56363
603.399	29498.9437
603.601	29409.10615
603.804	29302.93713
604.006	29362.14642
604.208	29268.22864
604.41	29321.31233
604.613	29155.93853
604.815	29209.02074
605.017	29766.42682
605.219	29527.5288
605.421	29447.89939
605.623	29166.14659
605.826	29568.36503
606.028	29209.02074
606.23	29547.94686
606.432	29286.60368
606.634	30197.29829
606.836	29427.48185
607.038	29611.24353
607.24	29627.57832
607.442	29500.98549
607.644	29733.75614
607.846	29856.27267
608.048	29652.08063
608.25	29713.3371
608.452	29466.27526
608.654	30005.33984
608.856	29819.51729
609.058	30011.46601
609.26	29944.07863
609.462	29731.71423
609.664	30303.49252
609.866	30011.46601
610.067	29952.24673
610.269	30011.46601
610.471	29746.00761
610.673	30005.33984
610.875	29895.0704
611.077	30070.68625
611.278	29991.04546
611.48	29835.85297
611.682	29821.55925
611.884	30193.21396
612.085	29956.33079
612.287	30448.49377
612.489	29833.81101
612.69	30213.63565
612.892	30074.77044
613.094	30319.83038
613.295	29968.58299
613.497	29915.49042
613.699	29692.91817
613.9	29758.25913
614.102	29974.70911
614.304	30074.77044
614.505	29897.11239
614.707	30138.07597
614.908	29533.65421
615.11	29948.16268
615.311	30103.3599
615.513	30087.02304
615.714	30172.79238
615.916	30054.34954
616.117	29803.18168
616.319	29915.49042
616.52	29407.06441
616.722	29931.82651
616.923	30183.00316
617.124	29925.70047
617.326	29411.14789
617.527	30197.29829
617.729	30383.14033
617.93	30468.91698
618.131	30172.79238
618.333	30080.89673
618.534	30744.64283
618.735	30863.11024
618.937	30489.34032
619.138	30364.7599
619.339	30183.00316
619.54	30640.47695
619.742	30305.53475
619.943	30040.05497
620.144	30003.29778
620.345	30340.25282
620.546	30281.02809
620.748	30758.94038
620.949	30370.8867
621.15	30620.05267
621.351	30250.395
621.552	30379.05578
621.753	30505.67908
621.954	30291.23918
622.155	30313.70368
622.356	30613.92541
622.558	30575.11971
622.759	30834.51424
622.96	30646.60426
623.161	30336.16832
623.362	30495.46734
623.563	30632.30723
623.764	30303.49252
623.965	30456.66304
624.166	30397.43629
624.366	30861.06766
624.567	30419.90148
624.768	30999.96632
624.969	30374.97124
625.17	30595.54371
625.371	30707.87801
625.572	30955.02781
625.773	30942.77197
625.973	30693.5807
626.174	30197.29829
626.375	30795.70581
626.576	30689.49576
626.777	30793.66327
626.977	30272.85924
627.178	31085.75998
627.379	30483.2133
627.58	30879.45093
627.78	30844.72706
627.981	30883.53612
628.182	30873.32316
628.382	30683.36837
628.583	30615.96783
628.784	30709.92049
628.984	30299.40807
629.185	30618.01025
629.386	29913.44841
629.586	30854.93993
629.787	30779.36557
629.987	30615.96783
630.188	30303.49252
630.388	30763.02541
630.589	30568.99254
630.79	30677.24099
630.99	30838.59936
631.191	30646.60426
631.391	30997.92365
631.591	30863.11024
631.792	30632.30723
631.992	30765.06792
632.193	31241.01231
632.393	30883.53612
632.594	30895.79172
632.794	30591.4589
632.994	30538.35684
633.195	30667.02871
633.395	30971.36901
633.595	31204.24123
633.796	30810.00359
633.996	31253.26944
634.196	31228.75523
634.397	31257.35517
634.597	31161.34226
634.797	31394.23057
634.997	31402.40246
635.198	31087.80272
635.398	31375.84391
635.598	31888.67905
635.798	31520.89785
635.998	31506.59638
636.199	31008.13704
636.399	31108.23018
636.599	30903.96214
636.799	31302.29855
636.999	31026.52123
637.199	31377.88687
637.399	31253.26944
637.599	31651.65793
637.799	31612.8378
637.999	31811.0315
638.199	31296.16986
638.399	31592.4064
638.599	31208.32688
638.799	31719.08388
638.999	31502.51027
639.199	31392.1876
639.399	31042.86283
639.599	31549.50102
639.799	31269.61238
639.999	31549.50102
640.199	30989.75296
640.399	31253.26944
640.599	30289.19696
640.799	31602.62208
640.998	31806.94486
641.198	31690.4787
641.398	31766.07887
641.598	31682.30585
641.798	31845.76823
641.997	31784.46848
642.197	31461.64946
642.397	32142.0745
642.597	31802.85823
642.796	31416.70334
642.996	31347.24269
643.196	31686.39227
643.395	31496.3811
643.595	31557.67341
643.795	31905.02624
643.994	32240.17134
644.194	32068.50496
644.394	31600.57894
644.593	31882.54888
644.793	32142.0745
644.992	31976.54665
645.192	31604.66522
645.392	32146.16178
645.591	31627.13988
645.791	32150.24906
645.99	31827.37813
646.19	32215.64668
646.389	32215.64668
646.589	31698.65157
646.788	32326.01005
646.987	31688.43549
647.187	32084.85352
647.386	31414.66035
647.586	32109.37661
647.785	32366.88695
647.984	32700.06735
648.184	32017.41652
648.383	32123.68187
648.582	31735.42986
648.782	32319.87858
648.981	31837.59483
649.18	31539.28556
649.38	32411.85256
649.579	32787.97204
649.778	32119.59464
649.977	32826.81511
650.177	32213.60298
650.376	32297.39673
650.575	32144.11814
650.774	32448.64339
650.973	32117.55103
651.173	32409.80864
651.372	31956.11201
651.571	32366.88695
651.77	32301.48432
651.969	32332.14153
652.168	32178.86026
652.367	32266.74006
652.566	31976.54665
652.765	32432.29182
652.964	32534.49152
653.163	32673.4924
653.362	32264.6963
653.561	32231.99642
653.76	32702.11159
653.959	32518.13919
654.158	32651.00622
654.357	32321.9224
654.556	32015.37301
654.755	32806.37127
654.954	32485.43496
655.153	31915.2433
655.352	32203.38447
655.551	32373.01856
655.749	32861.5702
655.948	32571.28482
656.147	32798.19381
656.346	33090.56372
656.545	32700.06735
656.743	32471.12704
656.942	32528.35938
657.141	32554.93215
657.34	32366.88695
657.538	32434.33576
657.737	32657.13879
657.936	33573.20087
658.135	33010.82114
658.333	32806.37127
658.532	32980.152
658.731	33151.90699
658.929	33057.84832
659.128	32716.42137
659.326	32757.3071
659.525	32667.35978
659.724	32556.97623
659.922	32503.83102
660.121	32610.123
660.319	32571.28482
660.518	32238.12761
660.716	32837.03712
660.915	32524.2713
661.113	33133.50375
661.312	32458.8632
661.51	33014.9104
661.709	32616.25543
661.907	32779.79467
662.105	32638.74116
662.304	32955.61711
662.502	32571.28482
662.701	32642.8295
662.899	33029.22291
663.097	33059.89301
663.296	33143.72775
663.494	33131.45896
663.692	33004.68726
663.891	33141.68294
664.089	33018.99968
664.287	32937.2162
664.485	32800.23817
664.684	33119.19027
664.882	32953.57256
665.08	33241.88166
665.278	33027.17826
665.476	33078.29536
665.675	32935.17167
665.873	33170.31046
666.071	33121.23505
666.269	32491.56696
666.467	32828.8595
666.665	33082.38481
666.863	32507.91906
667.061	32685.75771
667.259	32630.56449
667.457	32951.528
667.655	32548.79994
667.853	32573.32891
668.051	32330.0977
668.249	32544.71181
668.447	32334.18536
668.645	32571.28482
668.843	32231.99642
669.041	32287.17779
669.239	32297.39673
669.437	32166.59827
669.635	32407.76473
669.833	32436.3797
670.031	32076.67922
670.229	32043.98236
670.426	32279.00267
670.624	32839.08153
670.822	32616.25543
671.02	32877.9258
671.218	32655.0946
671.415	32458.8632
671.613	32162.51095
671.811	32536.53558
672.009	32967.88451
672.206	32642.8295
672.404	32231.99642
672.602	32397.5452
672.799	32391.41351
672.997	33010.82114
673.195	32718.46563
673.392	32761.39572
673.59	32565.15255
673.788	32370.97469
673.985	32170.68559
674.183	31986.76405
674.38	32495.65497
674.578	32462.95114
674.775	32213.60298
674.973	32346.44839
675.17	32360.75536
675.368	32424.11609
675.565	31988.80753
675.763	32667.35978
675.96	31874.37535
676.158	32023.54707
676.355	31506.59638
676.553	32103.24581
676.75	32058.28717
676.947	32599.90235
677.145	31668.00344
677.342	32291.26536
677.539	32321.9224
677.737	32054.20007
677.934	31941.80788
678.131	32393.45741
678.329	32301.48432
678.526	32105.2894
678.723	32164.55461
678.92	32738.9084
679.118	32172.72925
679.315	32250.39004
679.512	32056.24362
679.709	32638.74116
679.906	32172.72925
680.104	31868.24522
680.301	31712.95417
680.498	31586.27701
680.695	31680.26265
680.892	32215.64668
681.089	31829.42147
681.286	31553.58721
681.483	31482.07978
681.68	31553.58721
681.877	31212.41254
682.075	31447.34834
682.272	31287.9983
682.469	31986.76405
682.665	31808.98818
682.862	31796.7283
683.059	31557.67341
683.256	31729.3001
683.453	31571.97517
683.65	31586.27701
683.847	31522.94092
684.044	31189.9415
684.241	30924.3883
684.438	31249.18373
684.635	31290.04119
684.831	31858.02838
685.028	31855.98501
685.225	31772.20873
685.422	31345.19976
685.619	31627.13988
685.815	31633.26937
686.012	31334.98512
686.209	31543.37174
686.405	31298.21276
686.602	30961.15574
686.799	31388.10167
686.996	31837.59483
687.192	31874.37535
687.389	31218.54103
687.586	31596.49267
687.782	31216.4982
687.979	31349.28563
688.175	31365.62915
688.372	31398.31652
688.568	30785.49315
688.765	30579.2045
688.962	30667.02871
689.158	30771.19548
689.355	30955.02781
689.551	30856.9825
689.748	30632.30723
689.944	30775.28052
690.14	30442.36683
690.337	30758.94038
690.533	31326.81344
690.73	30973.41166
690.926	31208.32688
691.123	30634.34966
691.319	30689.49576
691.515	30844.72706
691.712	30540.39921
691.908	30695.62317
692.104	30734.43034
692.301	31087.80272
692.497	30423.98608
692.693	30564.90776
692.889	30603.71334
693.086	30818.17379
693.282	30432.15529
693.478	30495.46734
693.674	30360.67538
693.87	30362.71764
694.067	30491.38266
694.263	30381.09806
694.459	30148.28665
694.655	29884.86043
694.851	30489.34032
695.047	30011.46601
695.243	30211.59348
695.439	30183.00316
695.635	30107.44412
695.831	30287.15474
696.027	29672.49934
696.224	29862.3986
696.42	29831.76904
696.615	30393.35172
696.811	30174.83454
697.007	29978.79319
697.203	29982.87728
697.399	30366.80217
697.595	30685.41083
697.791	30340.25282
697.987	30160.53949
698.183	30426.02838
698.379	29660.2481
698.575	29811.34948
698.77	29574.4905
698.966	30111.52836
699.162	30080.89673
699.358	30315.74591
699.554	29993.08751
699.749	29774.59454
699.945	29915.49042
700.141	29850.14675
700.337	30091.10725
700.532	29901.19639
700.728	30150.32878
700.924	30270.81703
701.119	29907.3224
701.315	29486.693
701.511	29333.56252
701.706	29427.48185
701.902	29351.93786
702.097	29780.72034
702.293	29566.32321
702.489	29411.14789
702.684	29331.52082
702.88	29482.60945
703.075	29807.26558
703.271	29645.95504
703.466	29997.17162
703.662	29333.56252
703.857	29400.9392
704.053	29639.82945
704.248	29782.76227
704.443	30244.26842
704.639	29864.44058
704.834	29966.54096
705.03	29433.6071
705.225	29243.72871
705.42	29190.64605
705.616	29243.72871
705.811	28878.28922
706.006	29598.99248
706.202	29460.14996
706.397	29270.27031
706.592	29543.86324
706.787	29454.02467
706.983	29605.118
707.178	30193.21396
707.373	29407.06441
707.568	29351.93786
707.763	28582.28724
707.959	29045.69312
708.154	29129.39769
708.349	29092.64913
708.544	29590.82514
708.739	29147.7721
708.934	29239.6454
709.129	28849.70876
709.324	28990.57155
709.519	28770.09284
709.714	28904.82839
709.909	29049.77623
710.104	28531.25464
710.299	28663.94076
710.494	28904.82839
710.689	29202.89583
710.884	28917.07731
711.079	29115.10655
711.274	28831.33571
711.469	29682.70874
711.664	28829.29427
711.859	28684.3544
712.054	28453.68637
712.249	28304.67795
712.443	28010.7606
712.638	28935.45074
712.833	27945.44877
713.028	28274.0605
713.223	27720.94837
713.417	28514.92435
713.612	28710.89229
713.807	29008.94533
714.002	29309.06219
714.196	29178.3963
714.391	28835.41861
714.586	29417.27311
714.78	29119.18973
714.975	29098.77387
715.17	28584.32855
715.364	29304.97881
715.559	28964.03181
715.754	29092.64913
715.948	28494.51158
716.143	28523.08949
716.337	28033.2118
716.532	28572.08067
716.726	28823.16994
716.921	29021.19456
717.115	28843.5844
717.31	28959.94879
717.504	28478.18145
717.699	28476.14018
717.893	28304.67795
718.088	28298.55444
718.282	28392.44934
718.476	28169.96299
718.671	28114.8537
718.865	28123.01799
719.059	27263.82915
719.254	27390.34692
719.448	27402.59083
719.642	27514.82885
719.837	27365.85922
720.031	27388.30627
720.225	27416.87546
720.419	27843.40139
720.614	27686.25413
720.808	27788.29701
721.002	27386.26562
721.196	27553.60286
721.39	27345.45295
721.585	28053.62211
721.779	27574.01041
721.973	28023.00669
722.167	27451.56696
722.361	27251.58576
722.555	27441.36354
722.749	27486.25882
722.943	26994.48572
723.137	26961.83965
723.331	26827.17847
723.525	27282.19433
723.719	27233.22077
723.913	27451.56696
724.107	26865.94393
724.301	27188.32901
724.495	27174.0454
724.689	27090.3856
724.883	26810.85633
725.077	27004.68769
725.271	27041.41506
725.465	27045.49591
725.659	27445.4449
725.853	27192.41005
726.046	27045.49591
726.24	26553.79519
726.434	26814.93685
726.628	27127.11401
726.822	26776.17209
727.015	27102.62835
727.209	26825.1382
727.403	27304.64079
727.596	27518.91031
727.79	27522.99177
727.984	27488.29952
728.177	27435.2415
728.371	27814.82864
728.565	26782.29281
728.758	26880.22607
728.952	27469.93319
729.146	26931.23429
729.339	27645.43781
729.533	27516.86958
729.726	27300.5596
729.92	27118.9521
730.113	27102.62835
730.307	27308.72198
730.5	27329.12802
730.694	27392.38757
730.887	27145.47838
731.081	27533.19543
731.274	27365.85922
731.468	26776.17209
731.661	26867.98423
731.854	26635.39929
732.048	26549.71505
732.241	26345.71612
732.435	26549.71505
732.628	26751.68935
732.821	26696.60398
733.014	26880.22607
733.208	27082.22379
733.401	27276.07259
733.594	27043.45549
733.788	26763.93069
733.981	26918.99224
734.174	26902.66958
734.367	26798.61478
734.56	26786.37329
734.754	26994.48572
734.947	27004.68769
735.14	26706.80489
735.333	26935.31499
735.526	26357.9556
735.719	26111.13773
735.912	25925.5311
736.105	25921.452
736.298	26070.3438
736.491	26337.5565
736.684	25945.92671
736.877	26323.27723
737.07	26472.19357
737.263	26368.15522
737.456	26335.5166
737.649	26194.76745
737.842	26005.07499
738.035	26170.29016
738.228	26200.88681
738.421	26380.3948
738.614	26233.52366
738.807	26115.21716
739	26139.69389
739.192	26156.01185
739.385	26217.20518
739.578	26115.21716
739.771	26294.71893
739.964	25939.80801
740.156	26464.03355
740.349	26158.0516
740.542	26153.9721
740.735	26017.31275
740.927	26266.16095
741.12	26296.75879
741.313	25868.42438
741.505	26225.36441
741.698	25731.7821
741.891	25599.22693
742.083	25982.63925
742.276	25964.28291
742.468	25762.37292
742.661	25525.81534
742.854	25576.79533
743.046	25046.66724
743.239	25556.40319
743.431	26111.13773
743.624	25646.13012
743.816	25248.50668
744.009	25780.72762
744.201	25733.82148
744.393	25909.21475
744.586	25737.90023
744.778	25415.70288
744.971	25536.01124
745.163	25650.20871
745.355	25213.84585
745.548	25429.97638
745.74	25656.32661
745.932	25578.83456
746.125	25648.16942
746.317	25670.60177
746.509	25501.34539
746.702	25497.26709
746.894	25293.36279
747.086	25109.86715
747.278	25354.53189
747.471	25301.51856
747.663	25423.85915
747.855	25548.24638
748.047	25417.74194
748.239	25425.89822
748.431	25242.39001
748.623	25191.41859
748.815	25040.55123
749.008	25548.24638
749.2	25385.11715
749.392	25391.23426
749.584	25007.93288
749.776	25201.61276
749.968	25242.39001
750.16	25472.79748
750.352	25228.11788
750.544	25009.97151
750.736	25317.8302
750.928	25262.77896
751.12	24942.69793
751.311	24781.65938
751.503	25115.98338
751.695	25356.57089
751.887	25370.84397
752.079	25925.5311
752.271	25173.0692
752.463	25122.09964
752.654	25030.35793
752.846	24995.70115
753.038	24720.5094
753.23	24681.78221
753.421	24657.32339
753.613	24881.54232
753.805	25305.59646
753.997	24885.61929
754.188	24526.88239
754.38	24740.89249
754.572	24184.52495
754.763	24628.78855
754.955	24429.05844
755.146	24744.96913
755.338	24192.67545
755.53	24304.74914
755.721	24488.1597
755.913	24728.66261
756.104	24506.50191
756.296	24563.56788
756.487	24396.45178
756.679	24832.61935
756.87	24376.07295
757.062	24414.79294
757.253	24555.41548
757.445	24424.98257
757.636	24131.5478
757.827	24027.6365
758.019	23872.80188
758.21	24035.78614
758.401	24033.74873
758.593	23974.66491
758.784	23811.68752
758.975	23658.91319
759.167	23591.69782
759.358	23241.41763
759.549	22915.66108
759.74	22879.01882
759.932	23094.81672
760.123	23420.61917
760.314	23610.02896
760.505	23316.76073
760.696	23151.82617
760.888	23345.27007
761.079	23406.36361
761.27	23440.98453
761.461	23404.32711
761.652	23571.33018
761.843	23383.96232
762.034	23548.92612
762.225	23328.97895
762.416	23296.3973
762.607	23066.31296
762.798	23396.18116
762.989	23518.37574
763.18	23638.54455
763.371	22832.19976
763.562	23052.06132
763.753	22962.48335
763.944	23190.51262
764.135	22984.87724
764.326	23104.99679
764.517	23066.31296
764.708	22972.66234
764.899	22441.43424
765.089	22571.67495
765.28	22185.06625
765.471	22443.46914
765.662	22294.93111
765.853	22414.98089
766.043	22360.04128
766.234	22323.41635
766.425	22178.96296
766.615	22396.66739
766.806	22602.20223
766.997	22358.00653
767.187	22052.83589
767.378	22824.0575
767.569	22518.7629
767.759	22616.44857
767.95	22510.62279
768.141	22162.68769
768.331	22341.72867
768.522	22669.36505
768.712	22807.77314
768.903	22710.07164
769.093	22378.35419
769.284	22022.32345
769.474	21690.81038
769.665	21629.80692
769.855	21619.64002
770.046	21898.24832
770.236	21475.28069
770.426	21379.72989
770.617	21589.13991
770.807	21723.347
770.998	21768.08647
771.188	21581.0067
771.378	22016.22107
771.569	21705.04503
771.759	21377.69699
771.949	21395.99323
772.139	21599.30652
772.33	21080.93689
772.52	21454.94999
772.71	21682.67638
772.9	21656.24132
773.09	21576.94012
773.281	21520.00961
773.471	21715.21275
773.661	21259.79567
773.851	20916.33346
774.041	21038.25934
774.231	21080.93689
774.421	20674.55773
774.611	21050.45274
774.802	20737.53567
774.992	20432.84092
775.182	20875.69479
775.372	21247.59976
775.562	20690.80972
775.752	21093.13081
775.942	20402.37662
776.131	20605.48975
776.321	20593.30179
776.511	20300.83577
776.701	20662.36891
776.891	20690.80972
777.081	20469.39933
777.271	20479.55468
777.461	20550.64509
777.651	20601.42708
777.84	20479.55468
778.03	20162.75706
778.22	19902.89695
778.41	19963.79548
778.599	20004.3966
778.789	20341.45085
778.979	20026.72794
779.169	20333.3277
779.358	20321.1431
779.548	20461.27512
779.738	20006.4267
779.927	20118.0887
780.117	20150.57458
780.307	19882.59828
780.496	20207.42745
780.686	19681.6641
780.875	19925.22597
781.065	19904.92684
781.254	19476.71292
781.444	19728.34212
781.633	19724.28307
781.823	19783.14087
782.012	19878.5386
782.202	20024.69779
782.391	19868.38946
782.581	19748.6376
782.77	19028.4027
782.96	19736.46026
783.149	19448.3072
783.338	19572.08095
783.528	19286.00438
783.717	19405.70014
783.906	19070.99371
784.096	19160.23784
784.285	19306.29079
784.474	19671.517
784.663	19318.46283
784.853	19152.12441
785.042	19480.77095
785.231	19326.5776
785.42	19160.23784
785.61	19198.77752
785.799	19105.47346
785.988	19383.38289
786.177	19016.23417
786.366	19298.17617
786.555	19180.5217
786.744	19008.12189
786.933	18888.47335
787.122	19271.80414
787.312	19062.881
787.501	18959.44961
787.69	18756.67329
787.879	18783.03195
788.068	18537.71925
788.257	18598.53525
788.445	18203.2926
788.634	18746.53551
788.823	18539.74639
789.012	18632.9992
789.201	18296.5164
789.39	18077.65543
789.579	17982.4236
789.768	18343.13126
789.957	18485.01486
790.145	18594.48074
790.334	18639.08119
790.523	18659.35475
790.712	18132.36667
790.9	18511.36673
791.089	18057.39268
791.278	18245.85032
791.467	18071.57657
791.655	18343.13126
791.844	18079.68173
792.033	17656.26229
792.221	17895.30346
792.41	17747.4165
792.599	17239.06149
792.787	17565.11476
792.976	17544.86064
793.164	17958.11035
793.353	17976.34524
793.541	17824.39647
793.73	17585.36919
793.918	17629.9301
794.107	17759.5709
794.295	17646.13445
794.484	17569.16562
794.672	17702.85137
794.861	17530.68295
795.049	17557.01307
795.238	17419.29223
795.426	17514.48007
795.614	17431.44348
795.803	17413.21664
795.991	17388.91458
796.179	17646.13445
796.368	17522.58149
796.556	17449.67057
796.744	17291.71071
796.932	17435.49392
797.121	16826.03353
797.309	17291.71071
797.497	17259.31095
797.685	17625.87904
797.874	17026.45945
798.062	17012.28707
798.25	17079.10088
798.438	17384.86427
798.626	17245.1363
798.814	17340.31177
799.002	17107.44704
799.19	16862.47272
799.378	16773.40056
799.566	17044.68127
799.755	16894.8638
799.943	17087.19973
800.131	16963.69705
800.318	16921.18204
800.506	17004.18862
800.694	17151.99212
800.882	17016.3363
801.07	17105.4223
801.258	17060.87863
801.446	17409.16626
801.634	16931.30456
801.822	17101.37282
802.01	16868.546
802.197	17016.3363
802.385	16601.3425
802.573	16862.47272
802.761	16447.51601
802.949	17127.69463
803.136	16990.01645
803.324	17149.96731
803.512	16937.3781
803.699	17000.13942
803.887	17040.63196
804.075	17326.13628
804.262	16647.89773
804.45	17117.5708
804.638	16904.98615
804.825	17392.96489
805.013	17245.1363
805.201	17034.55801
805.388	16931.30456
805.576	16757.20613
805.763	16682.3089
805.951	16311.91559
806.138	16506.21151
806.326	16767.32763
806.513	16350.36856
806.701	16453.58788
806.888	16226.91663
807.075	16692.42996
807.263	16538.59599
807.45	16662.06696
807.638	16309.89177
807.825	16807.81423
808.012	16477.87554
808.2	16481.92351
808.387	16745.06041
808.574	16672.1879
808.761	16645.87357
808.949	16542.64409
809.136	16439.42022
809.323	16441.44416
809.51	16271.4395
809.698	16625.63204
809.885	16573.00511
810.072	16741.01186
810.259	16662.06696
810.446	16655.99442
810.633	16722.79349
810.82	17103.39756
811.008	16601.3425
811.195	16828.0579
811.382	16676.23629
811.569	16870.57043
811.756	16641.82524
811.943	17016.3363
812.13	16722.79349
812.317	16738.98759
812.504	16888.79042
812.691	17182.36455
812.878	16828.0579
813.064	16996.09022
813.251	16821.98478
813.438	16931.30456
813.625	16585.14965
813.812	16773.40056
813.999	16801.74118
814.186	16992.04104
814.372	16777.44919
814.559	16902.96168
814.746	16593.24605
814.933	16477.87554
815.12	16176.32347
815.306	16113.5894
815.493	16000.2671
815.68	16649.9219
815.866	16214.77417
816.053	16856.39946
816.24	16265.36815
816.426	16783.52215
816.613	16674.21209
816.799	16789.59514
816.986	16639.80108
817.173	16603.36661
817.359	16222.86913
817.546	16380.72665
817.732	16382.75054
817.919	16550.74031
818.105	16247.15419
818.292	16536.57195
818.478	16421.20479
818.665	16625.63204
818.851	16463.7077
819.037	16368.58336
819.224	16358.46401
819.41	16182.39459
819.597	16305.84413
819.783	16653.97024
819.969	16228.94037
820.156	16283.58225
820.342	16263.34437
820.528	16558.83657
820.714	16032.64442
820.901	16366.55949
821.087	16340.24929
821.273	16417.15694
821.459	15933.48998
821.646	16506.21151
821.832	16388.82222
822.018	16243.10666
822.204	15666.3946
822.39	15903.13722
822.576	15662.34784
822.762	15840.40908
822.948	15708.88582
823.134	15773.63517
823.32	15822.19789
823.507	15975.98434
823.693	16022.52647
823.879	16107.51844
824.065	16050.85683
824.25	15925.39588
824.436	15826.24481
824.622	15810.05715
824.808	15593.55338
824.994	15866.71429
825.18	15965.86658
825.366	15955.74886
825.552	15464.06022
825.738	15882.90221
825.923	15785.7758
826.109	16141.92072
826.295	15996.21996
826.481	15959.79594
826.667	15824.22135
826.852	15737.21354
827.038	15725.07307
827.224	15858.62035
827.409	15255.6614
827.595	15520.71315
827.781	15360.87198
827.966	14946.10017
828.152	14921.82062
828.338	14931.93711
828.523	14814.58507
828.709	15069.5204
828.894	14725.55791
829.08	14731.62799
829.266	14656.76307
829.451	14796.37509
829.637	14689.13725
829.822	15053.33419
830.008	15083.68332
830.193	14996.68236
830.378	14836.84164
830.564	14915.75072
830.749	15126.17203
830.935	14911.70412
831.12	14778.16505
831.305	15002.75221
831.491	14834.81832
831.676	14741.74478
831.861	14778.16505
832.047	14851.00488
832.232	14626.41205
832.417	14745.79149
832.602	14573.80303
832.788	14802.44509
832.973	14931.93711
833.158	15140.33493
833.343	15018.93847
833.528	14848.98156
833.714	14648.66949
833.899	14820.65505
834.084	14409.90027
834.269	14521.19322
834.454	14245.98745
834.639	14274.31888
834.824	14596.06079
835.009	14565.70927
835.194	14430.13567
835.379	14494.88799
835.564	13976.81851
835.749	14258.12954
835.934	13964.67458
836.119	14023.3694
836.304	13912.04982
836.489	14205.51333
836.674	13650.92163
836.859	14009.20187
837.044	14011.22581
837.228	14213.60821
837.413	13930.26629
837.598	14144.80064
837.783	13630.67697
837.968	13835.13344
838.152	13687.36119
838.337	13829.06092
838.522	13891.80906
838.707	13924.19416
838.891	13612.45648
839.076	13867.51977
839.261	13952.53056
839.445	13940.38645
839.63	13980.86646
839.815	14057.77575
839.999	13875.61624
840.184	14116.46741
840.368	14090.15759
840.553	14173.13346
840.737	13677.23919
840.922	13569.94094
841.106	13600.30934
841.291	13567.91635
841.475	13373.53872
841.66	13444.40962
841.844	13268.23564
842.029	13331.01383
842.213	13543.62102
842.397	13495.0288
842.582	13256.08455
842.766	13256.08455
842.951	12820.55841
843.135	12968.46059
843.319	12786.11129
843.504	12757.74186
843.688	13158.87011
843.872	13059.61944
844.056	13138.61579
844.241	13061.64508
844.425	13037.33709
844.609	12852.97777
844.793	12883.36966
844.977	12988.71899
845.161	13053.5425
845.346	13049.49117
845.53	12818.53216
845.714	13106.2079
845.898	12725.31827
846.082	12794.21664
846.266	12769.90032
846.45	12834.74206
846.634	13069.74758
846.818	12944.14983
847.002	12486.14694
847.186	12927.94225
847.37	12469.92877
847.554	12877.29138
847.738	12749.6361
847.922	12952.2535
848.106	13015.05415
848.29	12885.39574
848.473	12488.17418
848.657	12423.2992
848.841	12161.70064
849.025	12173.87067
849.209	12033.89895
849.392	12163.729
849.576	12042.01425
849.76	12019.69687
849.944	11910.12481
850.127	12074.47421
850.311	12072.44552
850.495	12384.77647
850.678	12090.70345
850.862	12330.0294
851.046	12131.27441
851.229	11971.00107
851.413	12072.44552
851.596	12265.13743
851.78	12110.98931
851.964	12222.54811
852.147	11877.65446
852.331	11964.91377
852.514	11861.41849
852.698	11680.75643
852.881	11156.62342
853.065	11376.10736
853.248	11211.50567
853.431	11430.95999
853.615	11111.89883
853.798	11292.79879
853.982	10918.70935
854.165	11276.54148
854.348	11111.89883
854.532	11280.60587
854.715	11004.13176
854.898	11481.74315
855.081	11357.82156
855.265	11388.29746
855.448	11392.36074
855.631	11244.0249
855.814	11252.15429
855.997	11113.93188
856.181	10998.03081
856.364	11089.5346
856.547	10963.45689
856.73	10953.28747
856.913	11024.46752
857.096	11463.46191
857.279	10922.77753
857.462	11313.11951
857.645	11187.11451
857.828	11081.40182
858.011	10878.02499
858.194	11059.0358
858.377	10788.50313
858.56	11052.93574
858.743	10774.25892
858.926	10821.05915
859.109	10568.66967
859.292	10566.63351
859.475	10432.21867
859.658	10519.79826
859.841	10342.57753
860.023	10383.32665
860.206	10442.40357
860.389	10572.74196
860.572	10114.28297
860.755	10401.66204
860.937	10242.71967
861.12	10197.87497
861.303	10438.32965
861.486	10586.99459
861.668	10481.10323
861.851	10316.08777
862.034	10057.18224
862.216	9944.98759
862.399	9661.24234
862.581	10236.60488
862.764	9985.79068
862.947	10220.29815
863.129	10155.06247
863.312	9955.1889
863.494	9942.94728
863.677	10422.03345
863.859	10254.9489
864.042	10100.00882
864.224	9802.13056
864.406	9724.54894
864.589	9624.47687
864.771	9742.92551
864.954	9469.18871
865.136	9602.00659
865.318	9248.35554
865.501	9336.30286
865.683	9299.49145
865.865	9477.36406
866.048	9422.17543
866.23	9471.23257
866.412	9387.42096
866.594	9567.27607
866.777	9319.94289
866.959	9364.93026
867.141	9254.4924
867.323	9082.60264
867.505	9422.17543
867.687	9536.62771
867.869	9467.14483
868.052	9489.62661
868.234	9548.88748
868.416	9391.50996
868.598	9160.37718
868.78	9563.18983
868.962	9330.168
869.144	9272.90208
869.326	9168.56254
869.508	9119.4463
869.69	9213.57713
869.872	9426.26388
870.054	9336.30286
870.236	9481.45164
870.417	9377.19816
870.599	9324.03298
870.781	9144.00565
870.963	9172.65511
871.145	8765.102
871.327	9319.94289
871.508	8890.10493
871.69	8943.36457
871.872	8871.6661
872.054	8910.59083
872.235	8804.04456
872.417	8873.71493
872.599	8676.94444
872.78	9115.35284
872.962	8648.23462
873.144	8861.42167
873.325	8922.88152
873.507	9101.02517
873.689	8838.88235
873.87	8908.54232
874.052	8988.42105
874.233	8670.79264
874.415	8701.54997
874.596	8869.61725
874.778	8404.05231
874.959	8607.21425
875.141	8738.45329
875.322	8873.71493
875.503	8674.89386
875.685	9049.84801
875.866	8676.94444
876.048	9096.93139
876.229	8845.02965
876.41	8886.00754
876.592	9010.9461
876.773	8914.6878
876.954	8521.04707
877.136	8693.34842
877.317	8855.2748
877.498	8664.64067
877.679	8699.49961
877.86	8750.75308
878.042	8672.84326
878.223	8859.37273
878.404	8703.60031
878.585	8557.97993
878.766	8609.26545
878.947	8685.14658
879.128	8621.57223
879.309	8516.94304
879.49	8369.14705
879.672	8748.70316
879.853	8508.73475
880.034	8582.59845
880.215	8311.64381
880.396	8615.41892
880.576	8724.10271
880.757	8949.50914
880.938	8697.44923
881.119	9021.18405
881.3	8459.47863
881.481	9109.21251
881.662	8992.51667
881.843	8974.08582
882.023	8883.95881
882.204	9045.75336
882.385	8746.65323
882.566	8560.03158
882.747	8689.24754
882.927	8820.43946
883.108	8754.85286
883.289	8615.41892
883.469	8582.59845
883.65	9000.7077
883.831	8771.25126
884.011	8992.51667
884.192	8795.84667
884.373	8972.03786
884.553	8599.00928
884.734	8933.12326
884.914	8738.45329
885.095	8916.73625
885.275	8734.35322
885.456	8969.98989
885.636	8785.5989
885.817	8992.51667
885.997	8754.85286
886.178	9197.20914
886.358	8918.78469
886.538	9072.36729
886.719	8996.61222
886.899	9223.80658
887.08	9113.30608
887.26	8871.6661
887.44	8562.08321
887.621	8750.75308
887.801	8342.45101
887.981	8742.5533
888.161	8713.85174
888.342	8918.78469
888.522	9074.41439
888.702	9017.08892
888.882	8896.25089
889.062	9019.1365
889.242	8666.69135
889.423	9019.1365
889.603	8845.02965
889.783	8816.34085
889.963	8529.2549
890.143	8863.47059
890.323	8683.09607
890.503	8715.90197
890.683	8674.89386
890.863	8865.51949
891.043	8744.60327
891.223	8904.44525
891.403	8812.24216
891.583	8849.12776
891.763	8422.52931
891.943	8875.76374
892.122	8642.08204
892.302	8998.65997
892.482	8623.62329
892.662	8617.47004
892.842	8533.35871
893.022	8601.06056
893.201	8369.14705
893.381	8765.102
893.561	8709.75123
893.741	8781.49967
893.92	8451.26821
894.1	8486.16039
894.28	8484.10806
894.459	8648.23462
894.639	8190.42594
894.819	8469.74123
894.998	8270.56069
895.178	8584.64987
895.357	8334.23619
895.537	8488.2127
895.716	8467.68875
895.896	8603.11181
896.075	8210.97618
896.255	8344.50467
896.434	8338.34364
896.614	8438.952
896.793	8122.59603
896.973	8303.42781
897.152	8169.87372
897.331	8434.84644
897.511	8451.26821
897.69	8130.819
897.87	7873.69807
898.049	8239.74319
898.228	7877.81453
898.407	7933.37855
898.587	7925.14779
898.766	8081.47638
898.945	7785.17428
899.124	7768.70048
899.304	7459.56608
899.483	7653.34627
899.662	7461.62857
899.841	7568.84839
900.02	7249.07766
900.199	7401.80755
900.378	7087.96133
900.557	7535.86386
900.737	7315.13774
900.916	7422.43755
901.095	7275.91728
901.274	7259.40103
901.453	7168.53638
901.632	7187.12582
901.811	7176.79858
901.989	7034.22575
902.168	6870.85893
902.347	7001.15017
902.526	6986.67779
902.705	6947.39005
902.884	6781.87828
903.063	6999.08276
903.242	6779.80846
903.42	7090.02778
903.599	6827.40852
903.778	7009.41961
903.957	6657.6486
904.135	7015.62145
904.314	6800.50562
904.493	6699.06767
904.672	6442.12064
904.85	6251.25174
905.029	6475.2951
905.207	6458.70862
905.386	6267.85689
905.565	6504.31787
905.743	6176.51002
905.922	6064.34039
906.1	5912.59455
906.279	6218.03695
906.457	6043.56071
906.636	6139.12776
906.814	5881.39834
906.993	5843.95587
907.171	5783.61583
907.35	5827.31233
907.528	5739.90892
907.707	5883.47825
907.885	5406.56241
908.063	5579.56122
908.242	5442.0091
908.42	5671.2056
908.598	5377.36592
908.777	5598.31038
908.955	5496.20854
909.133	5614.97469
909.311	5385.70825
909.49	5437.83926
909.668	5331.47644
909.846	5675.37017
910.024	5492.03992
910.202	5646.21621
910.38	5442.0091
910.559	5681.61685
910.737	5592.06087
910.915	5646.21621
911.093	5610.80875
911.271	5617.05762
911.449	5331.47644
911.627	5416.98861
911.805	5057.99125
911.983	5268.88159
912.161	5283.48894
912.339	5567.06072
912.517	5458.68755
912.695	5683.69903
912.872	5723.25593
913.05	6012.38677
913.228	5771.1292
913.406	5806.50577
913.584	5633.72024
913.762	5598.31038
913.939	5381.53713
914.117	5416.98861
914.295	5431.58431
914.473	5700.3556
914.65	5639.96833
914.828	5804.42498
915.006	5521.2183
915.184	5681.61685
915.361	5425.32915
915.539	5825.23178
915.716	5135.27565
915.894	5314.78654
916.072	5009.93361
916.249	5306.44103
916.427	5331.47644
916.604	5454.51808
916.782	5291.83548
916.959	5733.66422
917.137	5275.14202
917.314	5664.95857
917.492	5373.19462
917.669	5172.86197
917.847	4844.77333
918.024	5135.27565
918.201	5060.08043
918.379	5218.79056
918.556	4876.14388
918.733	5012.02333
918.911	4595.71947
919.088	5122.7452
919.265	4700.40287
919.442	5070.52601
919.62	4838.4986
919.797	5287.66225
919.974	5016.20269
920.151	4980.67516
920.328	4700.40287
920.506	5151.98161
920.683	4798.7539
920.86	4884.50849
921.037	4423.91829
921.214	4589.43669
921.391	4585.24805
921.568	4840.5902
921.745	4599.90788
921.922	4865.6876
922.099	4524.50287
922.276	4823.85678
922.453	4629.22425
922.63	4664.81681
922.807	4369.41389
922.984	4832.22367
923.161	4482.59879
923.338	4560.11438
923.514	4436.49413
923.691	4344.25306
923.868	4371.51049
924.045	4545.45159
924.222	4428.11032
924.399	4352.64035
924.575	4214.20603
924.752	4409.24548
924.929	4178.53364
925.105	4264.55659
925.282	3991.67942
925.459	4224.69674
925.635	3985.37811
925.812	4235.18692
925.989	3890.83655
926.165	3861.4153
926.342	4023.1832
926.518	3939.16291
926.695	3707.94184
926.871	3979.07662
927.048	3419.64282
927.224	3918.15276
927.401	3423.85403
927.577	3457.54117
927.754	3438.59272
927.93	3628.01075
928.107	3472.27785
928.283	3604.86769
928.459	3455.43586
928.636	3718.45704
928.812	3398.58569
928.988	3604.86769
929.165	3432.27625
929.341	3583.82659
929.517	3423.85403
929.693	3449.11982
929.87	3031.91982
930.046	3360.67841
930.222	3074.09038
930.398	3379.63276
930.574	3090.95685
930.751	3373.3148
930.927	3259.5649
931.103	3282.74022
931.279	2991.85208
931.455	3179.48911
931.631	2871.61654
931.807	3135.22652
931.983	2776.66089
932.159	3002.39675
932.335	2662.67803
932.511	2863.17719
932.687	2643.67723
932.863	2808.31589
933.039	2685.89984
933.215	2930.68558
933.391	2759.77697
933.566	2812.53633
933.742	2588.78038
933.918	2647.89971
934.094	2470.51378
934.27	2593.00351
934.445	2271.91878
934.621	2578.22235
934.797	2367.00202
934.973	2271.91878
935.148	2090.15386
935.324	2140.88505
935.5	1855.4714
935.675	2132.43016
935.851	1857.58598
936.027	2058.44468
936.202	1660.91294
936.378	1696.86621
936.553	1529.78378
936.729	1682.06202
936.904	1495.94313
937.08	1544.58899
937.255	1206.18839
937.431	1333.08496
937.606	1233.68184
937.782	1275.98042
937.957	1089.87697
938.133	1087.76234
938.308	994.72417
938.483	1011.63935
938.659	872.10247
938.834	910.15478
939.009	834.05287
939.185	935.52439
939.36	776.98398
939.535	825.5978
939.71	770.64342
939.886	867.8746
940.061	658.64259
940.236	859.41896
940.411	664.98142
940.586	766.41643
940.761	652.30387
940.937	643.8524
941.112	626.95005
941.287	639.62674
941.462	483.31395
941.637	582.5852
941.812	523.44114
941.987	626.95005
942.162	343.96815
942.337	534.00179
942.512	386.18665
942.687	495.98513
942.862	371.40941
943.037	529.77749
943.212	415.74358
943.386	470.64331
943.561	390.40887
943.736	375.63139
943.911	398.85351
944.086	415.74358
944.26	365.07655
944.435	360.85473
944.61	352.41131
944.785	529.77749
944.959	436.85761
945.134	474.86679
945.309	360.85473
945.483	457.97321
945.658	278.54336
945.833	502.32091
946.007	314.41933
946.182	432.63468
946.357	371.40941
946.531	436.85761
946.706	272.21286
946.88	388.29776
947.055	329.19331
947.229	362.96564
947.404	337.63597
947.578	411.52097
947.752	424.189
947.927	466.41988
948.101	413.63227
948.276	466.41988
948.45	472.75504
948.624	563.57345
948.799	430.52323
948.973	512.88085
949.147	474.86679
949.321	491.76134
949.496	584.69769
949.67	447.41521
949.844	398.85351
950.018	445.30366
950.193	396.74233
950.367	407.29842
950.541	449.52678
950.715	464.30819
950.889	487.53762
951.063	546.67503
951.237	356.63299
951.411	466.41988
951.585	474.86679
951.759	517.10492
951.933	512.88085
952.107	667.09439
952.281	472.75504
952.455	500.20897
952.629	436.85761
952.803	538.22615
952.977	453.74996
953.151	544.56279
953.325	491.76134
953.499	521.32906
953.672	430.52323
953.846	468.53159
954.02	424.189
954.194	419.96626
954.368	322.8615
954.541	495.98513
954.715	462.19651
954.889	489.64947
955.062	390.40887
955.236	508.65683
955.41	411.52097
955.583	557.23644
955.757	453.74996
955.93	432.63468
956.104	369.29844
956.278	510.76883
956.451	472.75504
956.625	405.18717
956.798	468.53159
956.972	483.31395
957.145	278.54336
957.319	445.30366
957.492	341.85741
957.665	491.76134
957.839	438.9691
958.012	487.53762
958.185	411.52097
958.359	506.54484
958.532	512.88085
958.705	466.41988
958.879	377.74241
959.052	500.20897
959.225	411.52097
959.398	605.82323
959.572	362.96564
959.745	415.74358
959.918	386.18665
960.091	472.75504
960.264	468.53159
960.438	447.41521
960.611	280.65356
960.784	464.30819
960.957	424.189
961.13	445.30366
961.303	474.86679
961.476	508.65683
961.649	354.52214
961.822	474.86679
961.995	327.08269
962.168	407.29842
962.341	441.0806
962.514	527.66536
962.686	405.18717
962.859	483.31395
963.032	343.96815
963.205	487.53762
963.378	369.29844
963.551	489.64947
963.723	371.40941
963.896	455.86158
964.069	390.40887
964.242	398.85351
964.414	381.9645
964.587	449.52678
964.76	362.96564
964.932	362.96564
965.105	348.18969
965.278	413.63227
965.45	365.07655
965.623	367.18749
965.795	386.18665
965.968	320.75093
966.14	343.96815
966.313	394.63116
966.485	360.85473
966.658	343.96815
966.83	367.18749
967.003	356.63299
967.175	369.29844
967.348	487.53762
967.52	348.18969
967.692	489.64947
967.865	289.09456
968.037	409.40968
968.209	356.63299
968.382	352.41131
968.554	284.87402
968.726	426.3004
968.898	327.08269
969.071	295.42551
969.243	312.30883
969.415	259.55236
969.587	149.85767
969.759	354.52214
969.932	284.87402
970.104	310.19835
970.276	227.90414
970.448	267.99262
970.62	219.46535
970.792	352.41131
970.964	278.54336
971.136	331.30395
971.308	343.96815
971.48	329.19331
971.652	206.80777
971.824	310.19835
971.996	259.55236
972.168	301.75662
972.339	183.60407
972.511	373.52039
972.683	221.57502
972.855	234.23344
973.027	314.41933
973.199	267.99262
973.37	242.67277
973.542	335.52528
973.714	246.89255
973.886	196.26033
974.057	208.91732
974.229	289.09456
974.401	253.22237
974.572	284.87402
974.744	196.26033
974.915	270.10273
975.087	299.64623
975.259	270.10273
975.43	120.334
975.602	261.6624
975.773	160.40285
975.945	242.67277
976.116	149.85767
976.288	295.42551
976.459	170.94855
976.63	225.79441
976.802	181.49477
976.973	246.89255
977.145	179.38548
977.316	181.49477
977.487	219.46535
977.659	196.26033
977.83	211.02688
978.001	253.22237
978.172	145.63975
978.344	259.55236
978.515	107.68229
978.686	225.79441
978.857	130.87769
979.028	170.94855
979.2	160.40285
979.371	166.73021
979.542	132.98649
979.713	151.96666
979.884	202.58873
980.055	154.07568
980.226	132.98649
980.397	86.59788
980.568	175.16697
980.739	183.60407
980.91	126.66015
981.081	162.51195
981.252	187.82274
981.423	149.85767
981.594	118.22533
981.765	141.42191
981.936	175.16697
982.106	99.24826
982.277	67.62381
982.448	192.04149
982.619	194.1509
982.79	177.27622
982.96	166.73021
983.131	65.5157
983.302	116.11668
983.472	219.46535
983.643	103.46523
983.814	132.98649
983.984	128.76891
984.155	57.08346
984.326	73.9483
984.496	158.29377
984.667	97.13981
984.837	120.334
985.008	103.46523
985.178	82.38126
985.349	168.83937
985.519	107.68229
985.69	107.68229
985.86	137.20416
986.031	54.97546
986.201	50.75953
986.371	124.55141
986.542	128.76891
986.712	78.16474
986.882	54.97546
987.053	149.85767
987.223	151.96666
987.393	10.7128
987.563	92.92297
987.734	151.96666
987.904	65.5157
988.074	65.5157
988.244	135.09531
988.414	90.81458
988.585	103.46523
988.755	84.48956
988.925	116.11668
989.095	120.334
989.265	76.05651
989.435	50.75953
989.605	122.44269
989.775	116.11668
989.945	52.86748
990.115	48.65159
990.285	111.89944
990.455	69.73195
990.625	57.08346
990.795	52.86748
990.965	57.08346
991.134	109.79086
991.304	120.334
991.474	99.24826
991.644	36.00449
991.814	118.22533
991.984	82.38126
992.153	97.13981
992.323	44.4358
992.493	84.48956
992.662	69.73195
992.832	84.48956
993.002	71.84011
993.171	84.48956
993.341	19.14299
993.511	92.92297
993.68	130.87769
993.85	23.35822
994.019	48.65159
994.189	73.9483
994.358	61.29953
994.528	-14.57544
994.697	61.29953
994.867	99.24826
995.036	42.32793
995.206	97.13981
995.375	50.75953
995.544	118.22533
995.714	-4.03909
995.883	78.16474
996.052	44.4358
996.222	38.11228
996.391	19.14299
996.56	65.5157
996.73	46.54368
996.899	31.78897
997.068	130.87769
997.237	27.57355
997.406	67.62381
997.576	-27.21824
997.745	40.22009
997.914	23.35822
998.083	-4.03909
998.252	124.55141
998.421	36.00449
998.59	44.4358
998.759	-1.93175
998.928	76.05651
999.097	17.0354
999.266	73.9483
999.435	14.92785
999.604	86.59788
999.773	-1.93175
999.942	99.24826
1000.111	-8.2537
1000.28	36.00449
1000.448	17.0354
1000.617	-14.57544
1000.786	65.5157
1000.955	44.4358
1001.124	44.4358
1001.292	76.05651
1001.461	73.9483
1001.63	40.22009
1001.798	52.86748
1001.967	36.00449
1002.136	42.32793
1002.304	65.5157
1002.473	21.25059
1002.642	4.39042
1002.81	107.68229
1002.979	33.89672
1003.147	42.32793
1003.316	65.5157
1003.484	73.9483
1003.653	6.49786
1003.821	-20.89695
1003.99	57.08346
1004.158	33.89672
1004.327	50.75953
1004.495	6.49786
1004.663	27.57355
1004.832	59.19149
1005	80.27299
1005.168	99.24826
1005.337	40.22009
1005.505	42.32793
1005.673	92.92297
1005.842	48.65159
1006.01	6.49786
1006.178	48.65159
1006.346	-6.14641
1006.514	6.49786
1006.683	-27.21824
1006.851	67.62381
1007.019	40.22009
1007.187	19.14299
1007.355	2.283
1007.523	71.84011
1007.691	14.92785
1007.859	-10.36097
1008.027	52.86748
1008.195	-18.7898
1008.363	67.62381
1008.531	2.283
1008.699	44.4358
1008.867	50.75953
1009.035	88.70622
1009.203	-6.14641
1009.37	80.27299
1009.538	-18.7898
1009.706	48.65159
1009.874	0.17561
1010.042	19.14299
1010.209	67.62381
1010.377	52.86748
1010.545	33.89672
1010.713	48.65159
1010.88	65.5157
1011.048	124.55141
1011.216	50.75953
1011.383	0.17561
1011.551	69.73195
1011.718	-20.89695
1011.886	-8.2537
1012.054	67.62381
1012.221	97.13981
1012.389	8.60532
1012.556	-25.11117
1012.724	31.78897
1012.891	65.5157
1013.058	25.46587
1013.226	-23.00407
1013.393	50.75953
1013.561	-4.03909
1013.728	0.17561
1013.895	73.9483
1014.063	-41.96706
1014.23	-14.57544
1014.397	-58.82135
1014.565	-16.68263
1014.732	-1.93175
1014.899	48.65159
1015.066	57.08346
1015.233	59.19149
1015.401	82.38126
1015.568	-8.2537
1015.735	29.68125
1015.902	33.89672
1016.069	63.4076
1016.236	92.92297
1016.403	33.89672
1016.57	-94.6313
1016.737	-23.00407
1016.904	-14.57544
1017.071	65.5157
1017.238	-25.11117
1017.405	57.08346
1017.572	29.68125
1017.739	21.25059
1017.906	8.60532
1018.073	67.62381
1018.24	6.49786
1018.407	57.08346
1018.573	40.22009
1018.74	-25.11117
1018.907	6.49786
1019.074	23.35822
1019.241	0.17561
1019.407	-1.93175
1019.574	67.62381
1019.741	8.60532
1019.907	25.46587
1020.074	23.35822
1020.241	50.75953
1020.407	23.35822
1020.574	19.14299
1020.74	36.00449
1020.907	0.17561
1021.073	48.65159
1021.24	8.60532
1021.406	6.49786
1021.573	-31.43231
1021.739	4.39042
1021.906	78.16474
1022.072	6.49786
1022.239	29.68125
1022.405	2.283
1022.571	48.65159
1022.738	33.89672
1022.904	-18.7898
1023.07	33.89672
1023.237	25.46587
1023.403	-27.21824
1023.569	-6.14641
1023.735	69.73195
1023.902	-1.93175
1024.068	44.4358
1024.234	-29.32529
1024.4	-65.14129
1024.566	19.14299
1024.732	44.4358
1024.898	-63.03467
1025.065	-39.86016
1025.231	36.00449
1025.397	-14.57544
1025.563	10.7128
1025.729	23.35822
1025.895	40.22009
1026.061	36.00449
1026.227	73.9483
1026.392	-25.11117
1026.558	-6.14641
1026.724	-35.64629
1026.89	-37.75323
1027.056	36.00449
1027.222	33.89672
1027.388	14.92785
1027.553	-58.82135
1027.719	23.35822
1027.885	21.25059
1028.051	-35.64629
1028.216	-4.03909
1028.382	-16.68263
1028.548	14.92785
1028.713	2.283
1028.879	-14.57544
1029.045	23.35822
1029.21	-16.68263
1029.376	-23.00407
1029.541	50.75953
1029.707	2.283
1029.873	-35.64629
1030.038	61.29953
1030.204	-14.57544
1030.369	4.39042
1030.534	-25.11117
1030.7	-16.68263
1030.865	31.78897
1031.031	-1.93175
1031.196	-46.18078
1031.361	-44.07393
1031.527	40.22009
1031.692	42.32793
1031.857	-46.18078
1032.023	42.32793
1032.188	-6.14641
1032.353	65.5157
1032.518	33.89672
1032.684	57.08346
1032.849	6.49786
1033.014	19.14299
1033.179	6.49786
1033.344	-18.7898
1033.509	2.283
1033.674	8.60532
1033.839	38.11228
1034.004	48.65159
1034.17	0.17561
1034.335	67.62381
1034.5	23.35822
1034.664	10.7128
1034.829	-60.92802
1034.994	14.92785
1035.159	50.75953
1035.324	84.48956
1035.489	-8.2537
1035.654	-16.68263
1035.819	8.60532
1035.984	25.46587
1036.148	-16.68263
1036.313	-14.57544
1036.478	0.17561
1036.643	6.49786
1036.807	-6.14641
1036.972	78.16474
1037.137	-18.7898
1037.301	40.22009
1037.466	14.92785
1037.631	44.4358
1037.795	59.19149
1037.96	-27.21824
1038.124	54.97546
1038.289	14.92785
1038.454	6.49786
1038.618	14.92785
1038.783	48.65159
1038.947	0.17561
1039.111	-35.64629
1039.276	-8.2537
1039.44	36.00449
1039.605	0.17561
1039.769	36.00449
1039.933	36.00449
1040.098	14.92785
1040.262	-41.96706
1040.426	57.08346
1040.591	-23.00407
1040.755	-6.14641
1040.919	-33.53931
1041.083	-31.43231
1041.248	6.49786
1041.412	19.14299
1041.576	36.00449
1041.74	-50.3944
1041.904	54.97546
1042.068	40.22009
1042.232	50.75953
1042.397	-1.93175
1042.561	25.46587
1042.725	6.49786
1042.889	-46.18078
1043.053	-31.43231
1043.217	31.78897
1043.381	12.82031
1043.544	82.38126
1043.708	6.49786
1043.872	17.0354
1044.036	-1.93175
1044.2	61.29953
1044.364	-20.89695
1044.528	65.5157
1044.691	17.0354
1044.855	19.14299
1045.019	-35.64629
1045.183	23.35822
1045.346	50.75953
1045.51	54.97546
1045.674	31.78897
1045.837	-44.07393
1046.001	33.89672
1046.165	-46.18078
1046.328	0.17561
1046.492	-10.36097
1046.655	46.54368
1046.819	-12.46822
1046.983	-8.2537
1047.146	25.46587
1047.31	14.92785
1047.473	48.65159
1047.636	-8.2537
1047.8	57.08346
1047.963	-88.31244
1048.127	23.35822
1048.29	0.17561
