Data from mixed_try1_USB4F045381__41__00063.txt Node

Date: Thu Apr 03 19:38:59 EDT 2025
User: mmckonesweet
Spectrometer: USB4F04538
Trigger mode: 4
Integration Time (sec): 2.700000E-3
Scans to average: 1
Electric dark correction enabled: true
Nonlinearity correction enabled: true
Boxcar width: 0
XAxis mode: Wavelengths
Number of Pixels in Spectrum: 3648
>>>>>Begin Spectral Data<<<<<
345.52	-24.75999
345.736	-24.75999
345.952	-24.75999
346.168	40.5714
346.384	2.63424
346.6	-3.68787
346.816	49.00291
347.032	23.70949
347.248	23.70949
347.464	2.63424
347.68	6.8491
347.896	-12.11701
348.112	6.8491
348.328	-31.08114
348.544	-73.21644
348.76	-14.22423
348.975	21.60186
349.191	-50.04327
349.407	-5.79519
349.623	-52.15005
349.839	4.74166
350.055	2.63424
350.27	-3.68787
350.486	-52.15005
350.702	-60.57691
350.918	-75.32294
351.133	-26.86706
351.349	17.38667
351.565	-12.11701
351.781	-5.79519
351.996	-56.36353
352.212	32.14026
352.428	27.92483
352.644	-66.89679
352.859	-69.00336
353.075	-28.97412
353.291	-3.68787
353.506	40.5714
353.722	-24.75999
353.938	-5.79519
354.153	2.63424
354.369	-18.43861
354.584	-14.22423
354.8	-22.65289
355.016	-43.72279
355.231	-81.64228
355.447	-62.68356
355.662	-18.43861
355.878	27.92483
356.093	2.63424
356.309	11.06405
356.524	4.74166
356.74	15.2791
356.955	-18.43861
357.171	-1.58052
357.386	-33.18815
357.602	11.06405
357.817	-1.58052
358.033	-18.43861
358.248	-47.93647
358.464	84.84094
358.679	-10.00976
358.895	13.17157
359.11	-28.97412
359.325	-14.22423
359.541	-10.00976
359.756	-54.2568
359.972	11.06405
360.187	-28.97412
360.402	46.895
360.618	19.49425
360.833	53.21881
361.048	-69.00336
361.264	-14.22423
361.479	-26.86706
361.694	19.49425
361.909	11.06405
362.125	51.11085
362.34	-37.40208
362.555	11.06405
362.77	40.5714
362.986	-14.22423
363.201	-64.79019
363.416	-28.97412
363.631	27.92483
363.847	-69.00336
364.062	19.49425
364.277	27.92483
364.492	34.24801
364.707	-31.08114
364.922	13.17157
365.138	49.00291
365.353	30.03253
365.568	-31.08114
365.783	-73.21644
365.998	38.46358
366.213	-37.40208
366.428	53.21881
366.643	-3.68787
366.858	-10.00976
367.073	36.35578
367.288	4.74166
367.503	19.49425
367.718	38.46358
367.933	21.60186
368.148	4.74166
368.363	-87.96139
368.578	6.8491
368.793	-69.00336
369.008	-31.08114
369.223	30.03253
369.438	46.895
369.653	-37.40208
369.868	23.70949
370.083	-22.65289
370.298	-22.65289
370.513	-47.93647
370.728	-28.97412
370.943	-85.85504
371.157	-31.08114
371.372	4.74166
371.587	11.06405
371.802	-24.75999
372.017	11.06405
372.232	-3.68787
372.446	11.06405
372.661	57.4348
372.876	-71.10991
373.091	63.75895
373.306	-35.29512
373.52	4.74166
373.735	-12.11701
373.95	4.74166
374.165	-14.22423
374.379	-22.65289
374.594	-37.40208
374.809	11.06405
375.023	-1.58052
375.238	27.92483
375.453	15.2791
375.667	-33.18815
375.882	11.06405
376.097	-43.72279
376.311	15.2791
376.526	27.92483
376.741	-62.68356
376.955	21.60186
377.17	6.8491
377.384	-5.79519
377.599	-47.93647
377.813	2.63424
378.028	-39.50901
378.242	11.06405
378.457	78.51611
378.672	36.35578
378.886	-60.57691
379.101	-35.29512
379.315	36.35578
379.53	67.97517
379.744	19.49425
379.958	70.08331
380.173	19.49425
380.387	-37.40208
380.602	13.17157
380.816	44.78711
381.031	27.92483
381.245	-26.86706
381.459	-26.86706
381.674	53.21881
381.888	-26.86706
382.103	-20.54576
382.317	6.8491
382.531	25.81715
382.746	-47.93647
382.96	23.70949
383.174	15.2791
383.388	30.03253
383.603	40.5714
383.817	6.8491
384.031	53.21881
384.246	-98.49271
384.46	-14.22423
384.674	4.74166
384.888	-39.50901
385.103	21.60186
385.317	-12.11701
385.531	-5.79519
385.745	-62.68356
385.959	-43.72279
386.174	-54.2568
386.388	-10.00976
386.602	-14.22423
386.816	-66.89679
387.03	-1.58052
387.244	-14.22423
387.458	-12.11701
387.672	-39.50901
387.887	40.5714
388.101	-45.82964
388.315	-22.65289
388.529	-14.22423
388.743	15.2791
388.957	55.32679
389.171	36.35578
389.385	53.21881
389.599	-18.43861
389.813	44.78711
390.027	-3.68787
390.241	17.38667
390.455	-102.70506
390.669	-14.22423
390.883	-18.43861
391.097	-39.50901
391.311	-47.93647
391.525	-14.22423
391.738	-22.65289
391.952	15.2791
392.166	19.49425
392.38	13.17157
392.594	-56.36353
392.808	19.49425
393.022	-58.47023
393.236	11.06405
393.449	27.92483
393.663	40.5714
393.877	63.75895
394.091	32.14026
394.305	19.49425
394.518	4.74166
394.732	27.92483
394.946	-28.97412
395.16	-20.54576
395.373	30.03253
395.587	19.49425
395.801	11.06405
396.015	2.63424
396.228	-3.68787
396.442	-28.97412
396.656	44.78711
396.869	-54.2568
397.083	46.895
397.297	-12.11701
397.51	17.38667
397.724	-90.0677
397.938	17.38667
398.151	32.14026
398.365	36.35578
398.578	-18.43861
398.792	55.32679
399.005	-5.79519
399.219	-10.00976
399.433	-81.64228
399.646	-14.22423
399.86	11.06405
400.073	4.74166
400.287	25.81715
400.5	25.81715
400.714	19.49425
400.927	65.86705
401.141	-14.22423
401.354	80.62436
401.567	-1.58052
401.781	27.92483
401.994	-26.86706
402.208	40.5714
402.421	13.17157
402.635	65.86705
402.848	-35.29512
403.061	-5.79519
403.275	70.08331
403.488	-64.79019
403.701	-20.54576
403.915	-5.79519
404.128	32.14026
404.341	-5.79519
404.555	21.60186
404.768	97.49122
404.981	-31.08114
405.195	-26.86706
405.408	-24.75999
405.621	89.05761
405.834	36.35578
406.048	19.49425
406.261	67.97517
406.474	-73.21644
406.687	112.25088
406.9	13.17157
407.114	19.49425
407.327	-5.79519
407.54	30.03253
407.753	11.06405
407.966	-26.86706
408.179	-60.57691
408.392	65.86705
408.605	27.92483
408.819	27.92483
409.032	2.63424
409.245	21.60186
409.458	11.06405
409.671	27.92483
409.884	70.08331
410.097	-1.58052
410.31	34.24801
410.523	-14.22423
410.736	13.17157
410.949	-5.79519
411.162	44.78711
411.375	-22.65289
411.588	25.81715
411.801	-10.00976
412.014	49.00291
412.227	32.14026
412.44	74.29967
412.653	-28.97412
412.865	15.2791
413.078	-39.50901
413.291	-1.58052
413.504	-20.54576
413.717	82.73264
413.93	2.63424
414.143	38.46358
414.356	6.8491
414.568	86.94927
414.781	-22.65289
414.994	30.03253
415.207	6.8491
415.42	27.92483
415.632	19.49425
415.845	11.06405
416.058	-5.79519
416.271	-69.00336
416.483	32.14026
416.696	13.17157
416.909	40.5714
417.121	-12.11701
417.334	21.60186
417.547	51.11085
417.759	65.86705
417.972	-22.65289
418.185	169.1909
418.397	-31.08114
418.61	65.86705
418.823	72.19148
419.035	-12.11701
419.248	36.35578
419.46	-20.54576
419.673	27.92483
419.885	23.70949
420.098	86.94927
420.311	36.35578
420.523	78.51611
420.736	86.94927
420.948	19.49425
421.161	15.2791
421.373	25.81715
421.586	13.17157
421.798	44.78711
422.01	55.32679
422.223	49.00291
422.435	19.49425
422.648	49.00291
422.86	6.8491
423.073	36.35578
423.285	34.24801
423.497	44.78711
423.71	74.29967
423.922	40.5714
424.134	-3.68787
424.347	27.92483
424.559	17.38667
424.771	40.5714
424.984	-35.29512
425.196	-64.79019
425.408	2.63424
425.621	55.32679
425.833	53.21881
426.045	-20.54576
426.257	72.19148
426.47	188.1743
426.682	44.78711
426.894	55.32679
427.106	105.92518
427.318	40.5714
427.531	127.01161
427.743	80.62436
427.955	61.65088
428.167	63.75895
428.379	86.94927
428.591	44.78711
428.804	80.62436
429.016	97.49122
429.228	42.67924
429.44	80.62436
429.652	78.51611
429.864	89.05761
430.076	21.60186
430.288	34.24801
430.5	89.05761
430.712	70.08331
430.924	63.75895
431.136	82.73264
431.348	40.5714
431.56	67.97517
431.772	74.29967
431.984	86.94927
432.196	82.73264
432.408	61.65088
432.62	25.81715
432.832	124.90287
433.044	91.16598
433.256	53.21881
433.468	97.49122
433.679	120.68545
433.891	120.68545
434.103	108.03372
434.315	49.00291
434.527	133.33796
434.739	74.29967
434.95	188.1743
435.162	190.28367
435.374	80.62436
435.586	181.84631
435.798	198.72135
436.009	72.19148
436.221	150.20917
436.433	129.12037
436.645	158.64528
436.856	133.33796
437.068	114.35949
437.28	200.83082
437.491	211.37848
437.703	65.86705
437.915	129.12037
438.126	38.46358
438.338	70.08331
438.55	133.33796
438.761	143.8823
438.973	137.55563
439.184	129.12037
439.396	188.1743
439.608	190.28367
439.819	181.84631
440.031	131.22915
440.242	162.86346
440.454	116.46812
440.665	129.12037
440.877	105.92518
441.088	167.08173
441.3	171.30008
441.511	221.92663
441.723	198.72135
441.934	110.14229
442.146	213.48807
442.357	190.28367
442.569	209.26891
442.78	209.26891
442.991	145.99124
443.203	196.6119
443.414	129.12037
443.626	186.06495
443.837	188.1743
444.048	154.42718
444.26	196.6119
444.471	160.75436
444.682	114.35949
444.894	160.75436
445.105	232.47528
445.316	89.05761
445.528	202.94032
445.739	175.51851
445.95	181.84631
446.161	221.92663
446.373	268.3443
446.584	173.40929
446.795	230.36551
447.006	321.10269
447.217	251.46407
447.429	213.48807
447.64	198.72135
447.851	207.15936
448.062	226.14603
448.273	173.40929
448.484	190.28367
448.695	247.24421
448.907	240.91455
449.118	253.57403
449.329	221.92663
449.54	340.09847
449.751	291.55658
449.962	318.99213
450.173	156.53622
450.384	281.00526
450.595	308.43963
450.806	344.31995
451.017	373.87222
451.228	270.45441
451.439	365.42837
451.65	266.2342
451.861	213.48807
452.072	352.76311
452.283	348.54149
452.494	363.31745
452.705	289.44628
452.915	331.65572
453.126	428.76371
453.337	354.87394
453.548	264.12413
453.759	392.87187
453.97	458.32515
454.181	416.09547
454.391	327.43445
454.602	475.21875
454.813	519.56899
455.024	502.6729
455.235	411.87285
455.445	458.32515
455.656	378.09425
455.867	549.13933
456.078	460.4368
456.288	437.20952
456.499	470.99526
456.71	637.86606
456.921	479.44231
457.131	572.37505
457.342	509.00883
457.553	521.68107
457.763	479.44231
457.974	542.8026
458.184	561.81316
458.395	544.91483
458.606	561.81316
458.816	809.04035
459.027	720.27449
459.237	751.97453
459.448	688.57688
459.659	694.9162
459.869	798.47207
460.08	825.95009
460.29	703.36879
460.501	840.74658
460.711	770.99567
460.922	656.88183
461.132	927.42009
461.343	859.77128
461.553	830.17761
461.764	800.58571
461.974	785.79045
462.184	859.77128
462.395	973.93315
462.605	1075.42711
462.816	872.4548
463.026	992.96219
463.236	1079.65631
463.447	1035.25078
463.657	1024.67841
463.867	1187.50725
464.078	1153.67046
464.288	1100.80262
464.498	1221.34497
464.709	1221.34497
464.919	1210.77059
465.129	1341.89751
465.339	1253.06856
465.55	1301.71254
465.76	1274.21796
465.97	1221.34497
466.18	1426.49895
466.391	1525.90622
466.601	1439.18926
466.811	1508.9859
467.021	1587.24175
467.231	1648.57585
467.441	1489.95049
467.651	1788.15508
467.862	1705.67815
468.072	1807.18737
468.282	1921.37318
468.492	1724.71177
468.702	1893.88536
468.912	2149.69209
469.122	1805.07269
469.332	2090.50617
469.542	2175.05559
469.752	2217.32542
469.962	2175.05559
470.172	2251.13879
470.382	2268.04461
470.592	2420.16939
470.802	2242.68566
471.012	2644.0291
471.222	2553.23383
471.432	2608.13598
471.642	2580.68592
471.852	2734.80127
472.062	2724.24759
472.272	3044.92307
472.482	2791.78533
472.691	3047.03165
472.901	2909.94239
473.111	2985.8766
473.321	3103.9574
473.531	3257.80911
473.741	3238.84584
473.95	3198.80783
474.16	3175.6252
474.37	3615.7382
474.58	3419.99376
474.79	3752.45286
474.999	3617.84211
475.209	3588.38565
475.419	3748.24746
475.628	3987.82864
475.838	3651.50212
476.048	3886.98399
476.258	3853.3588
476.467	4359.28004
476.677	4363.47342
476.886	4195.67114
477.096	4365.57008
477.306	4560.46348
477.515	4390.72826
477.725	4514.37686
477.935	4562.55807
478.144	4801.1946
478.354	4771.90415
478.563	4926.6745
478.773	4985.20355
478.982	5112.65062
479.192	5118.91629
479.401	5189.91253
479.611	5129.3586
479.82	5365.19936
480.03	5421.50645
480.239	5438.18675
480.449	5596.57442
480.658	5740.25584
480.868	5904.62269
481.077	5925.41812
481.287	5779.80056
481.496	6151.9355
481.705	5844.3026
481.915	6338.75785
482.124	6328.3838
482.333	6400.98988
482.543	6376.09958
482.752	6392.69349
482.961	6657.9938
483.171	6633.13799
483.38	6591.70427
483.589	6873.27255
483.799	6943.5987
484.008	7013.89873
484.217	6842.23796
484.426	7034.57026
484.636	7005.62949
484.845	7402.1514
485.054	7272.13243
485.263	7593.9267
485.472	7270.06794
485.682	7591.86559
485.891	7439.28377
486.1	7490.84487
486.309	7604.23194
486.518	7976.92753
486.727	7882.27392
486.936	8242.14026
487.146	7882.27392
487.355	8229.81216
487.564	8223.64784
487.773	8439.29412
487.982	8320.2018
488.191	8654.72882
488.4	8373.59607
488.609	8523.44105
488.818	8595.24857
489.027	8802.33669
489.236	8759.29421
489.445	9244.60516
489.654	8929.36801
489.863	9078.84973
490.072	8951.89865
490.281	9281.42462
490.49	9318.23867
490.698	9369.3604
490.907	9252.78773
491.116	9735.0986
491.325	9692.21677
491.534	9451.13389
491.743	9641.15812
491.952	9802.47079
492.16	9773.89066
492.369	9882.07139
492.578	10108.50542
492.787	10059.56166
492.996	9949.4082
493.204	10161.51871
493.413	10181.90594
493.622	10175.78991
493.831	10379.59154
494.039	10346.99228
494.248	10473.29577
494.457	10703.36837
494.665	10509.95522
494.874	10532.35619
495.083	10727.79164
495.291	10817.32892
495.5	10731.86202
495.709	11061.40802
495.917	11063.44133
496.126	11215.90947
496.335	10849.88229
496.543	11581.59934
496.752	11163.06062
496.96	11390.66771
497.169	11323.61816
497.377	11445.51845
497.586	11549.10626
497.794	11589.72224
498.003	11437.39286
498.211	11847.54984
498.42	11520.67284
498.628	11672.97355
498.837	11583.63008
499.045	11616.12065
499.254	11920.60958
499.462	11865.81578
499.671	12044.38119
499.879	12157.98197
500.087	12210.71717
500.296	12269.53138
500.504	12348.61693
500.713	12216.80168
500.921	12510.81127
501.129	12344.56152
501.338	12383.08682
501.546	12527.0284
501.754	12405.38981
501.962	12279.67115
502.171	12679.04454
502.379	12968.79823
502.587	12798.607
502.795	12764.15885
503.004	12701.33738
503.212	13112.62206
503.42	12908.01997
503.628	12954.61706
503.837	12930.30588
504.045	13157.18227
504.253	13025.52046
504.461	13317.17597
504.669	13224.01842
504.877	13315.15091
505.085	13586.47494
505.294	13523.71196
505.502	13566.22919
505.71	13805.10795
505.918	13657.33237
506.126	13801.05953
506.334	13545.98309
506.542	13821.30155
506.75	13284.77438
506.958	14037.87412
507.166	14143.11415
507.374	13831.42246
507.582	13720.08842
507.79	13912.38717
507.998	14033.8263
508.206	14187.63701
508.414	14011.56314
508.622	14276.67982
508.83	14189.66075
509.037	14163.35194
509.245	13948.81987
509.453	14541.76511
509.661	14167.39947
509.869	14481.0608
510.077	14357.62475
510.285	14905.97144
510.492	14375.83699
510.7	14855.38873
510.908	14541.76511
511.116	14758.26882
511.324	14582.23402
511.531	14994.99629
511.739	14839.20218
511.947	14802.78231
512.155	14802.78231
512.362	14740.05865
512.57	14725.89514
512.778	15177.09101
512.985	15090.09035
513.193	15152.81176
513.401	15148.76522
513.608	15349.06948
513.816	15296.46414
514.024	15227.67279
514.231	15069.85761
514.439	15306.58054
514.646	15247.90552
514.854	15769.92555
515.061	15551.40036
515.269	15686.9657
515.477	15842.76979
515.684	15761.83183
515.892	15583.77385
516.099	15828.60552
516.307	15860.98108
516.514	16059.28854
516.722	16158.44747
516.929	15952.03903
517.136	16043.09968
517.344	15978.34515
517.551	15966.20384
517.759	16035.00528
517.966	16419.51819
518.173	16221.18268
518.381	16385.11175
518.588	16146.30536
518.796	16182.73188
519.003	16611.80045
519.21	16211.06399
519.418	16609.77633
519.625	16466.069
519.832	16785.88387
520.039	16403.32685
520.247	16710.98538
520.454	16725.15512
520.661	17059.1914
520.868	16648.23509
521.076	17211.05022
521.283	16848.63923
521.49	17067.29014
521.697	16694.79155
521.904	17259.64845
522.112	16974.15727
522.319	17338.6242
522.526	16978.20641
522.733	17306.22334
522.94	17223.19962
523.147	17107.7845
523.354	17028.82152
523.561	17603.93604
523.768	17283.9482
523.975	17741.67696
524.183	17255.59853
524.39	17731.54842
524.597	17820.68241
524.804	17946.29159
525.011	17747.75412
525.218	17824.73411
525.425	17901.71906
525.632	17834.86343
525.838	17836.8893
526.045	17901.71906
526.252	17915.90105
526.459	18240.10831
526.666	18071.91428
526.873	18428.59701
527.08	18345.49584
527.287	18381.97849
527.494	17976.68293
527.701	18852.31114
527.907	18489.40679
528.114	18921.25701
528.321	18373.87113
528.528	18501.56916
528.735	18773.23186
528.941	18850.28339
529.148	18473.19051
529.355	18862.44995
529.562	18580.62795
529.768	18817.83994
529.975	18531.9757
530.182	18846.2279
530.388	18969.92747
530.595	19010.48796
530.802	18799.59095
531.008	19318.80094
531.215	19365.46183
531.422	19550.09814
531.628	19395.89402
531.835	19063.21903
532.042	19259.97076
532.248	19608.94553
532.455	19815.95394
532.661	19746.94629
532.868	19430.38496
533.074	19876.84707
533.281	19951.9538
533.487	19921.50443
533.694	20258.53018
533.9	20299.14351
534.107	20073.76075
534.313	20404.74603
534.52	20211.82692
534.726	20414.90072
534.933	20092.03309
535.139	20439.2724
535.345	20309.2971
535.552	20234.16298
535.758	20536.76513
535.965	20435.21041
536.171	20626.14193
536.377	20880.09723
536.584	20680.99078
536.79	20703.33748
536.996	20918.7041
537.203	21008.11518
537.409	20754.1273
537.615	20825.2374
537.821	20597.70298
538.028	20967.47279
538.234	20884.16104
538.44	20941.05612
538.646	20778.50733
538.853	21012.17951
539.059	21087.37255
539.265	20924.80005
539.471	21142.24668
539.677	21300.78856
539.883	21522.38166
540.09	21591.51211
540.296	21585.41218
540.502	21683.0153
540.708	21583.37888
540.914	21870.11305
541.12	21904.68903
541.326	21640.31282
541.532	21353.64131
541.738	21565.07934
541.944	21597.61208
542.15	22126.40826
542.356	21927.06232
542.562	22325.79015
542.768	21896.55341
542.974	22368.51944
543.18	22134.5456
543.386	22285.09709
543.592	22167.09555
543.798	22647.31623
544.004	22376.65854
544.21	22517.06704
544.415	22506.89193
544.621	22706.34015
544.827	22447.87809
545.033	22598.47108
545.239	22626.96384
545.445	23201.03282
545.651	23015.75432
545.856	22749.08344
546.062	22808.1124
546.268	22779.6153
546.474	22763.33154
546.679	22201.68092
546.885	22773.50886
547.091	22913.96466
547.297	22472.29725
547.502	23144.02116
547.708	22962.82265
547.914	23011.68257
548.119	23626.66298
548.325	23380.2288
548.531	22997.43156
548.736	23404.66653
548.942	22899.71478
549.147	23164.38217
549.353	23388.37466
549.559	23667.40022
549.764	23679.62162
549.97	23315.06377
550.175	23467.7994
550.381	23968.89248
550.586	23463.72622
550.792	23773.32262
550.997	23685.73236
551.203	23628.69982
551.408	24005.56477
551.614	24470.15736
551.819	24362.14757
552.025	24254.14516
552.23	24119.66216
552.435	24119.66216
552.641	24315.27769
552.846	24386.60198
553.052	24482.38534
553.257	24494.61342
553.462	24912.45962
553.668	24484.42335
553.873	24347.88268
554.078	24800.34453
554.283	24841.11282
554.489	24714.73424
554.694	24598.55573
554.899	24614.861
555.105	24994.0023
555.31	25055.16172
555.515	24651.54844
555.72	25091.85835
555.925	24890.03603
556.131	25208.0691
556.336	25291.66368
556.541	24914.49814
556.746	24841.11282
556.951	25146.90466
557.156	24763.65388
557.361	25124.47819
557.567	25717.84643
557.772	25687.25624
557.977	25352.83272
558.182	25636.27357
558.387	25744.35828
558.592	25721.92515
558.797	25340.59876
559.002	25542.46867
559.207	25640.35214
559.412	25548.58625
559.617	25624.03791
559.822	25960.54367
560.027	25636.27357
560.232	25711.72836
560.437	25560.82147
560.642	25517.99852
560.847	25548.58625
561.051	25868.7643
561.256	25670.94165
561.461	26211.42575
561.666	26033.96981
561.871	26201.22678
562.076	26017.65269
562.281	25985.01879
562.485	25685.21691
562.69	26172.66988
562.895	25691.33491
563.1	26323.61721
563.305	26125.75572
563.509	26380.73479
563.714	26168.59035
563.919	26574.536
564.123	26225.70438
564.328	26360.33551
564.533	26015.61306
564.737	26270.58061
564.942	26692.86365
565.147	26870.36458
565.351	26594.93695
565.556	26339.93639
565.761	26454.17356
565.965	26258.34156
566.17	26233.86363
566.374	26539.85473
566.579	26745.90874
566.784	26690.82348
566.988	26621.45842
567.193	26497.0138
567.397	26492.93375
567.602	26721.42627
567.806	26097.19972
568.011	26511.29403
568.215	26909.13062
568.42	26843.84075
568.624	26925.45332
568.828	26931.57435
569.033	26772.43166
569.237	26905.04996
569.442	27325.38691
569.646	27264.16925
569.85	27613.12523
570.055	27939.66601
570.259	27982.5267
570.463	27896.80583
570.668	27494.76178
570.872	27453.94776
571.076	27774.35097
571.281	27513.12825
571.485	27749.86051
571.689	27745.77878
571.893	27529.45409
572.098	27984.56769
572.302	27480.47681
572.506	27645.77794
572.71	28100.90642
572.914	28082.5369
573.119	27784.55539
573.323	27902.92868
573.527	27700.88009
573.731	27998.85471
573.935	28192.75534
574.139	28292.77114
574.343	28072.33166
574.547	28019.26482
574.751	28070.29061
574.955	28433.61412
575.159	28460.15033
575.364	28368.295
575.568	28409.11932
575.772	28233.5778
575.976	27858.028
576.18	28160.09769
576.383	28556.09042
576.587	28243.78348
576.791	27862.10986
576.995	28321.34756
577.199	27809.04609
577.403	28309.1005
577.607	28756.14321
577.811	29090.94782
578.015	28992.95334
578.219	28703.067
578.422	28784.723
578.626	28997.03639
578.83	28311.14167
579.034	28456.06783
579.238	28743.89479
579.442	29213.44428
579.645	28886.79534
579.849	28772.47449
580.053	28825.55163
580.257	28776.55732
580.46	29027.65944
580.664	29168.52848
580.868	29097.07255
581.071	29246.11064
581.275	29548.28717
581.479	28841.88319
581.682	29166.48686
581.886	28935.79099
582.09	29058.28272
582.293	29660.58842
582.497	29168.52848
582.7	29464.57379
582.904	29482.94974
583.107	29435.98914
583.311	29250.19395
583.515	29776.97679
583.718	29482.94974
583.922	29358.40328
584.125	29099.11413
584.329	29615.66753
584.532	30071.0266
584.735	30328.33972
584.939	29848.4451
585.142	29989.34376
585.346	30183.34352
585.549	29887.24275
585.753	29915.83075
585.956	30228.27128
586.159	30248.69317
586.363	30189.47
586.566	30358.97349
586.769	30054.68988
586.973	29999.55401
587.176	30250.73537
587.379	29987.30171
587.582	30099.61603
587.786	30299.74844
587.989	30718.43083
588.192	30565.24816
588.395	30702.091
588.599	30624.47792
588.802	30387.56526
589.005	30381.43843
589.208	30845.06749
589.411	30798.08877
589.615	30757.23829
589.818	31086.10044
590.021	31233.18139
590.224	31092.22866
590.427	31043.20328
590.63	31077.9295
590.833	30996.22142
591.036	30838.93979
591.239	31065.67314
591.442	30591.7993
591.645	31188.23916
591.848	30953.3256
592.051	31519.19529
592.254	31178.02512
592.457	31212.75301
592.66	31220.92434
592.863	31758.24631
593.066	31390.48513
593.269	31611.13518
593.472	31484.46333
593.675	32363.13986
593.878	31570.27258
594.081	31568.22947
594.284	32205.76878
594.486	32367.22759
594.689	32083.15054
594.892	31770.50599
595.095	32046.36649
595.298	32113.80442
595.5	32250.73066
595.703	32365.18373
595.906	32183.28822
596.109	32148.54602
596.311	32158.76425
596.514	31999.36557
596.717	32367.22759
596.92	32641.12602
597.122	32547.09655
597.325	32166.93888
597.528	31985.06115
597.73	32882.35546
597.933	32111.76081
598.136	32677.92153
598.338	32359.05214
598.541	32209.85618
598.743	32894.6223
598.946	32451.02801
599.148	32559.36098
599.351	32410.14929
599.554	32534.8322
599.756	32166.93888
599.959	32561.40506
600.161	32745.38199
600.363	32896.66678
600.566	33162.47192
600.768	32962.09156
600.971	32990.71575
601.173	33007.07266
601.376	33094.99399
601.578	32614.55197
601.78	32816.93389
601.983	33154.29261
602.185	32794.44582
602.388	32763.78076
602.59	33393.55611
602.792	33610.35998
602.995	33393.55611
603.197	32982.53735
603.399	33459.0027
603.601	33158.38226
603.804	32917.11174
604.006	33534.67921
604.208	33348.56336
604.41	32935.51242
604.613	33274.94192
604.815	33522.40706
605.017	33833.33711
605.219	33602.17807
605.421	33681.95391
605.623	33542.86071
605.826	33776.05484
606.028	33205.414
606.23	33557.17845
606.432	33139.97894
606.634	33428.32423
606.836	32964.13613
607.038	33324.02246
607.24	33340.38301
607.442	32931.42336
607.644	33097.03873
607.846	33663.54367
608.048	34078.86316
608.25	33569.45092
608.452	33731.04918
608.654	34064.53941
608.856	33761.73469
609.058	34039.98482
609.26	33593.99621
609.462	33526.49776
609.664	33790.37516
609.866	33555.13305
610.067	33416.05303
610.269	33475.36483
610.471	32970.26985
610.673	33915.17354
610.875	33638.99708
611.077	34244.62254
611.278	33659.45254
611.48	34007.24616
611.682	33851.74983
611.884	34146.39183
612.085	33997.01552
612.287	33990.87718
612.489	33653.31587
612.69	34042.03101
612.892	33849.70396
613.094	33927.44948
613.295	33248.35732
613.497	33649.22477
613.699	33729.00351
613.9	34076.8169
614.102	34125.92818
614.304	34279.41466
614.505	33900.85177
614.707	33857.88747
614.908	33303.57203
615.11	33831.29127
615.311	34064.53941
615.513	33868.11693
615.714	33874.25464
615.916	34136.15996
616.117	33849.70396
616.319	34242.57598
616.52	33317.8873
616.722	33882.43831
616.923	34003.15389
617.124	33577.63264
617.326	33904.94369
617.527	34001.10777
617.729	33814.92467
617.93	33720.82084
618.131	33440.59553
618.333	33444.68599
618.534	34056.35449
618.735	34115.69649
618.937	33776.05484
619.138	33919.26551
619.339	33931.54149
619.54	34252.80882
619.742	33956.09383
619.943	34301.9278
620.144	34301.9278
620.345	34205.73852
620.546	33964.27806
620.748	33931.54149
620.949	34064.53941
621.15	34414.50053
621.351	34078.86316
621.552	34046.12342
621.753	33894.71392
621.954	33980.64667
622.155	34146.39183
622.356	34308.06783
622.558	34340.81523
622.759	34396.07873
622.96	34066.58565
623.161	34547.55651
623.362	34123.88183
623.563	34132.06723
623.764	34154.57739
623.965	34535.2737
624.166	34783.00605
624.366	34447.2512
624.567	34457.48599
624.768	33749.46039
624.969	33798.55828
625.17	34330.58156
625.371	34269.18157
625.572	34535.2737
625.773	34291.6945
625.973	34461.57993
626.174	34375.61043
626.375	34105.46489
626.576	34463.62691
626.777	34271.22818
626.977	34146.39183
627.178	34316.25459
627.379	34162.76302
627.58	34185.27379
627.78	34127.97453
627.981	34238.48286
628.182	34021.56921
628.382	34518.89686
628.583	34537.32083
628.784	34389.9382
628.984	33823.10794
629.185	34596.68922
629.386	34234.38977
629.586	34723.62653
629.787	34320.34799
629.987	34281.46129
630.188	34160.71661
630.388	34582.3586
630.589	34085.00197
630.79	34416.54742
630.99	34281.46129
631.191	34719.53152
631.391	34961.1668
631.591	34742.05427
631.792	34136.15996
631.992	34629.44569
632.193	34821.91186
632.393	34707.2466
632.594	34490.238
632.794	34565.981
632.994	34772.76794
633.195	34594.64198
633.395	35061.52527
633.595	34926.35113
633.796	34541.41509
633.996	34805.53028
634.196	34684.72466
634.397	34643.77698
634.597	34275.32141
634.797	34740.00672
634.997	34948.87877
635.198	34613.06732
635.398	34013.38459
635.598	34766.62513
635.798	34766.62513
635.998	34791.19662
636.199	35122.97472
636.399	35331.93505
636.599	35411.84516
636.799	35463.07362
636.999	34950.92676
637.199	34404.26616
637.399	34717.48402
637.599	35125.02311
637.799	34668.34538
637.999	35165.99187
638.199	35092.24947
638.399	35104.53944
638.599	34881.29747
638.799	35118.87796
638.999	35165.99187
639.199	35735.66364
639.399	35364.71777
639.599	35362.66881
639.799	34699.05675
639.999	35659.82093
640.199	35260.22729
640.399	35297.10481
640.599	34044.07721
640.799	35836.11546
640.998	35977.59068
641.198	35959.13587
641.398	35725.4142
641.598	35592.18359
641.798	35372.91364
641.997	35268.42216
642.197	35379.06061
642.397	35772.56278
642.597	35696.71646
642.796	35268.42216
642.996	35096.34611
643.196	35170.08885
643.395	35407.74702
643.595	36041.16083
643.795	35635.22486
643.994	35629.07597
644.194	35436.43442
644.394	35899.67348
644.593	35526.60135
644.793	35583.98552
644.992	35370.86467
645.192	35706.96553
645.392	35106.58779
645.591	35391.35466
645.791	35803.31342
645.99	35639.32415
646.19	35319.64187
646.389	35280.71461
646.589	35442.58185
646.788	35698.76626
646.987	35620.87751
647.187	35772.56278
647.386	35555.29292
647.586	35758.21291
647.785	35563.4907
647.984	35870.96919
648.184	36102.68563
648.383	36500.67651
648.582	35965.28742
648.782	36523.25
648.981	35911.97565
649.18	35975.54013
649.38	36597.13229
649.579	36065.77012
649.778	36309.85835
649.977	36391.92407
650.177	35963.2369
650.376	35413.89424
650.575	35286.8609
650.774	35571.68857
650.973	35696.71646
651.173	35627.02635
651.372	35504.05869
651.571	35813.5639
651.77	35940.68151
651.969	35596.28266
652.168	35668.01978
652.367	35868.91893
652.566	35850.4668
652.765	35840.21582
652.964	35635.22486
653.163	36065.77012
653.362	36480.15583
653.561	35891.47214
653.76	36014.50171
653.959	35655.72153
654.158	35987.84356
654.357	35766.4128
654.556	35321.69072
654.755	35713.11504
654.954	35928.37886
655.153	35518.40395
655.352	36049.36384
655.551	36084.22764
655.749	36385.7688
655.948	36671.02296
656.147	36480.15583
656.346	36420.64942
656.545	36512.98923
656.743	36008.34974
656.942	35897.62313
657.141	36008.34974
657.34	35934.53016
657.538	36303.70382
657.737	36141.65407
657.936	36305.75532
658.135	36069.87175
658.333	35583.98552
658.532	35678.26848
658.731	35713.11504
658.929	35850.4668
659.128	35944.78244
659.326	36443.22019
659.525	36250.36684
659.724	36221.64862
659.922	36100.63472
660.121	35676.21873
660.319	35637.27451
660.518	35428.23792
660.716	36211.3924
660.915	36053.46537
661.113	36629.97154
661.312	35842.266
661.51	36186.77808
661.709	36418.59757
661.907	36272.93198
662.105	36205.23874
662.304	36201.13633
662.502	36194.98276
662.701	36467.84372
662.899	36287.292
663.097	36400.13119
663.296	36445.27212
663.494	36944.08271
663.692	36305.75532
663.891	36359.0966
664.089	35948.88339
664.287	36644.33924
664.485	36439.11636
664.684	36790.08701
664.882	36016.55238
665.08	36595.07989
665.278	35946.83291
665.476	36508.88497
665.675	36174.47125
665.873	35711.0652
666.071	36274.98339
666.269	36363.19994
666.467	36114.99122
666.665	36032.95792
666.863	36404.23478
667.061	36432.96065
667.259	36720.28814
667.457	36603.28952
667.655	36289.34346
667.853	36291.39492
668.051	35639.32415
668.249	36229.8537
668.447	35813.5639
668.645	35934.53016
668.843	36264.72639
669.041	36199.08513
669.239	36018.60305
669.437	35756.16295
669.635	35963.2369
669.833	35553.24349
670.031	35670.06951
670.229	35495.86151
670.426	35838.16564
670.624	36203.18753
670.822	35663.92034
671.02	35778.71281
671.218	35590.13407
671.415	35489.71368
671.613	35766.4128
671.811	35979.64125
672.009	36441.16827
672.206	36270.88057
672.404	35633.17523
672.602	35805.3635
672.799	35477.41816
672.997	35914.02603
673.195	35549.14464
673.392	36158.06247
673.59	35758.21291
673.788	35698.76626
673.985	35551.19407
674.183	35463.07362
674.38	35409.79609
674.578	35659.82093
674.775	35735.66364
674.973	35946.83291
675.17	35717.21473
675.368	35561.44125
675.565	35961.18638
675.763	36014.50171
675.96	35657.77122
676.158	35116.82959
676.355	35045.13945
676.553	35721.31445
676.75	35407.74702
676.947	36110.88934
677.145	35262.276
677.342	35596.28266
677.539	35231.54586
677.737	35704.91571
677.934	35657.77122
678.131	35522.50264
678.329	35028.75394
678.526	35723.36432
678.723	35538.89762
678.92	35989.89415
679.118	35303.25122
679.315	35170.08885
679.512	35481.51665
679.709	34803.4826
679.906	35110.68449
680.104	35807.41359
680.301	35512.25595
680.498	35221.30272
680.695	34922.25525
680.892	35403.6489
681.089	35247.93513
681.286	35202.86538
681.483	34541.41509
681.68	35096.34611
681.877	35120.92634
682.075	34764.57754
682.272	34764.57754
682.469	34938.63886
682.665	34846.48477
682.862	34561.88664
683.059	34441.11037
683.256	34428.82882
683.453	34701.1042
683.65	34340.81523
683.847	34285.55456
684.044	34727.72155
684.241	34682.67723
684.438	34651.96638
684.635	33947.90966
684.831	34864.91486
685.028	34813.72103
685.225	34301.9278
685.422	33894.71392
685.619	34482.0499
685.815	34437.0165
686.012	34312.1612
686.209	34414.50053
686.405	34574.16977
686.602	33681.95391
686.799	33796.51249
686.996	34048.16962
687.192	34044.07721
687.389	34291.6945
687.586	33788.32939
687.782	33677.86272
687.979	34160.71661
688.175	33481.50068
688.372	33925.40349
688.568	33651.27032
688.765	33735.14054
688.962	33980.64667
689.158	34070.67814
689.355	33645.13369
689.551	33501.95372
689.748	33428.32423
689.944	33164.51675
690.14	33483.54597
690.337	33622.63295
690.533	33354.69865
690.73	33291.30191
690.926	33757.64324
691.123	33430.36944
691.319	33790.37516
691.515	33917.21953
691.712	33655.36142
691.908	33759.68896
692.104	33489.68186
692.301	33763.78041
692.497	33784.23786
692.693	33514.22569
692.889	33598.08713
693.086	33694.22755
693.282	33587.85985
693.478	33364.92419
693.674	33403.78194
693.87	33274.94192
694.067	33571.49635
694.263	33027.51903
694.459	33013.20654
694.655	33473.31956
694.851	33050.01036
695.047	33356.74375
695.243	33313.79721
695.439	33117.4863
695.635	33009.11728
695.831	33450.82171
696.027	33546.95148
696.224	33052.05504
696.42	33125.6654
696.615	33158.38226
696.811	33276.98691
697.007	33319.93235
697.203	33047.96568
697.399	32841.46668
697.595	32902.80024
697.791	33066.36789
697.987	32970.26985
698.183	33561.26926
698.379	32859.8665
698.575	32976.40359
698.77	32573.6696
698.966	32845.55551
699.162	32990.71575
699.358	33250.40228
699.554	32510.30375
699.749	32839.42226
699.945	32845.55551
700.141	32667.70048
700.337	32236.4245
700.532	33383.33036
700.728	32943.69057
700.924	32874.17762
701.119	32414.23713
701.315	32320.21922
701.511	31968.71335
701.706	32733.11625
701.902	32880.311
702.097	32626.81687
702.293	32342.70134
702.489	32336.56983
702.684	32461.24783
702.88	32451.02801
703.075	32050.45357
703.271	31976.88723
703.466	32177.1572
703.662	31966.66989
703.857	32379.49084
704.053	32561.40506
704.248	32649.30274
704.443	32823.06705
704.639	32596.15479
704.834	32671.78889
705.03	32567.53732
705.225	32594.11067
705.42	32299.78115
705.616	32332.48216
705.811	32408.10538
706.006	32628.86103
706.202	32363.13986
706.397	32344.74519
706.592	32126.06609
706.787	32289.5622
706.983	32310.00016
707.178	32602.28716
707.373	31780.72244
707.568	31768.4627
707.763	31488.54942
707.959	31978.93071
708.154	31993.23509
708.349	32087.2377
708.544	32097.45563
708.739	31394.57107
708.934	31639.73941
709.129	31343.49732
709.324	31690.81924
709.519	31752.11649
709.714	31417.04384
709.909	31531.45374
710.104	31649.95528
710.299	31600.91946
710.494	31676.51677
710.689	31617.26463
710.884	31772.54927
711.079	31723.51091
711.274	31692.86245
711.469	32440.80825
711.664	32485.77563
711.859	31819.54535
712.054	31617.26463
712.249	31116.74166
712.443	31241.35278
712.638	31635.65307
712.833	31082.01497
713.028	31314.89645
713.223	30475.38436
713.417	30667.36912
713.612	30896.13215
713.807	31586.61753
714.002	31719.42442
714.196	31778.67914
714.391	31286.2959
714.586	31482.42029
714.78	31517.15222
714.975	31345.54025
715.17	31282.21013
715.364	31764.37614
715.559	31844.06543
715.754	31304.68193
715.948	31586.61753
716.143	31171.89671
716.337	31092.22866
716.532	31202.53888
716.726	31241.35278
716.921	31331.23977
717.115	31126.95548
717.31	31149.426
717.504	31251.56706
717.699	31543.71226
717.893	30546.86673
718.088	30726.60078
718.282	30522.35831
718.476	30267.07298
718.671	30248.69317
718.865	30593.8417
719.059	30134.33207
719.254	29905.62073
719.448	29983.21762
719.642	30379.39616
719.837	30089.40549
720.031	30136.3742
720.225	29964.83926
720.419	29836.1933
720.614	29913.78874
720.808	30117.99506
721.002	29135.86275
721.196	29409.44644
721.39	29917.87276
721.585	30769.49338
721.779	30312.00181
721.973	30089.40549
722.167	29732.05454
722.361	29966.8813
722.555	29993.42786
722.749	29507.45115
722.943	29938.2929
723.137	29552.37079
723.331	29423.73864
723.525	29550.32898
723.719	29662.63029
723.913	29429.86389
724.107	29793.31229
724.301	29934.20887
724.495	29358.40328
724.689	29548.28717
724.883	29730.01264
725.077	29917.87276
725.271	29366.57014
725.465	29376.77874
725.659	29427.82214
725.853	29231.81908
726.046	29107.28046
726.24	28837.80029
726.434	28570.37957
726.628	29231.81908
726.822	29174.65333
727.015	29985.25966
727.209	29323.69431
727.403	29452.3232
727.596	29227.73578
727.79	29772.89293
727.984	29750.43176
728.177	29776.97679
728.371	29421.69689
728.565	29415.57166
728.758	29634.04419
728.952	29319.61092
729.146	29268.56892
729.339	29891.32674
729.533	29854.57102
729.726	29852.52905
729.92	29517.66011
730.113	29399.23776
730.307	29938.2929
730.5	29646.29535
730.694	29703.46793
730.887	29834.15133
731.081	30046.52155
731.274	29495.20043
731.468	29043.99183
731.661	29005.20251
731.854	29172.61171
732.048	29227.73578
732.241	28825.55163
732.435	28903.12716
732.628	28698.98424
732.821	28782.68158
733.014	28892.91977
733.208	29317.56923
733.401	29188.94469
733.594	28990.91181
733.788	28937.83249
733.981	29011.32712
734.174	29356.36157
734.367	28927.62501
734.56	28815.34443
734.754	29195.06958
734.947	29150.15398
735.14	29190.98632
735.333	28939.87399
735.526	28997.03639
735.719	28402.99565
735.912	28131.52247
736.105	28652.03285
736.298	28778.59874
736.491	28631.61937
736.684	28300.93581
736.877	28739.81199
737.07	28864.3392
737.263	28566.29695
737.456	28874.54652
737.649	28776.55732
737.842	28400.95442
738.035	28943.95699
738.228	28464.23284
738.421	28656.11556
738.614	28931.708
738.807	29199.15284
739	28825.55163
739.192	28374.41862
739.385	28109.07067
739.578	28168.26207
739.771	28541.80132
739.964	28374.41862
740.156	28594.87538
740.349	28186.63201
740.542	28398.9132
740.735	28466.2741
740.927	27892.72393
741.12	27858.028
741.313	28239.7012
741.505	27921.2973
741.698	27966.19876
741.891	27966.19876
742.083	27788.63716
742.276	28049.88021
742.468	28190.71423
742.661	27360.07743
742.854	27441.70365
743.046	27629.45155
743.239	27960.0758
743.431	28176.42648
743.624	27527.41335
743.816	27676.39014
744.009	28258.07148
744.201	28223.37214
744.393	28086.61901
744.586	27584.55436
744.778	28200.91979
744.971	28076.41375
745.163	28037.63403
745.355	27702.92093
745.548	27335.58996
745.74	27802.9234
745.932	27984.56769
746.125	27807.00519
746.317	27884.56015
746.509	27658.02279
746.702	27821.29151
746.894	27609.04366
747.086	27641.69634
747.278	27823.33241
747.471	27962.11678
747.663	28145.81005
747.855	27862.10986
748.047	27449.86639
748.239	27582.5136
748.431	27858.028
748.623	27866.19172
748.815	27964.15777
749.008	27604.9621
749.2	27541.69851
749.392	27647.81875
749.584	27225.39867
749.776	27353.95555
749.968	27478.43611
750.16	27496.80249
750.352	27392.72768
750.544	27266.20982
750.736	27143.77797
750.928	26958.09898
751.12	26992.78539
751.311	26819.35743
751.503	27490.68035
751.695	27027.47221
751.887	26943.81646
752.079	27468.23261
752.271	26809.15611
752.463	26631.65905
752.654	26539.85473
752.846	27090.72567
753.038	26711.2253
753.23	26837.7199
753.421	26390.9345
753.613	26580.65627
753.805	26725.50666
753.997	26707.14492
754.188	26374.61499
754.38	26201.22678
754.572	26821.3977
754.763	26572.49591
754.955	26437.85365
755.146	26796.91457
755.338	26525.57434
755.53	26327.697
755.721	26739.7881
755.913	26637.77945
756.104	26870.36458
756.296	26847.92132
756.487	26341.97629
756.679	26233.86363
756.87	25685.21691
757.062	25754.55523
757.253	25548.58625
757.445	25703.57096
757.636	25556.74305
757.827	25889.15939
758.019	26105.35854
758.21	25936.06881
758.401	25405.84742
758.593	25666.86303
758.784	25487.41124
758.975	25856.52733
759.167	26058.4457
759.358	25805.54069
759.549	25536.3511
759.74	25564.89989
759.932	25548.58625
760.123	25597.52756
760.314	25709.689
760.505	25116.32318
760.696	25389.53506
760.888	24847.22815
761.079	25030.69771
761.27	25042.92967
761.461	25069.43255
761.652	25187.68073
761.843	25110.20694
762.034	25422.15992
762.225	25020.50447
762.416	25475.17646
762.607	25150.98222
762.798	25301.85839
762.989	25206.03026
763.18	25444.58983
763.371	25136.71077
763.562	25332.44283
763.753	25004.1954
763.944	24902.26704
764.135	24669.89246
764.326	24533.33626
764.517	24777.92238
764.708	24667.85423
764.899	24072.79967
765.089	24441.62577
765.28	24527.22206
765.471	24427.36016
765.662	24266.37147
765.853	24470.15736
766.043	23636.84718
766.234	23881.29019
766.425	23899.62511
766.615	24150.22543
766.806	24570.02189
766.997	24093.17449
767.187	23677.58471
767.378	24190.97743
767.569	23917.96027
767.759	24044.2754
767.95	24007.60215
768.141	24052.42514
768.331	24203.20324
768.522	23964.81784
768.712	24360.10972
768.903	24392.71564
769.093	24199.12796
769.284	23691.84313
769.474	23797.76739
769.665	23469.83599
769.855	23502.42192
770.046	23435.21432
770.236	22930.25044
770.426	23072.76018
770.617	23168.45442
770.807	23194.92431
770.998	23490.2021
771.188	23714.24952
771.378	23298.77302
771.569	23370.04655
771.759	23103.30011
771.949	22362.41516
772.139	23337.46388
772.33	22224.06026
772.52	23009.6467
772.71	22995.39572
772.9	23011.68257
773.09	23048.32878
773.281	22944.50067
773.471	23264.15585
773.661	22846.78812
773.851	22747.04801
774.041	22618.82298
774.231	22712.44624
774.421	22781.65078
774.611	22521.1371
774.802	22517.06704
774.992	22506.89193
775.182	22177.26761
775.372	22569.97902
775.562	22262.71653
775.752	22797.93478
775.942	22329.85954
776.131	22797.93478
776.321	22364.44992
776.511	22203.71539
776.701	22140.64865
776.891	22472.29725
777.081	21959.60611
777.271	22388.86729
777.461	22510.96196
777.651	22238.30189
777.84	21855.8762
778.03	22004.35541
778.22	21571.17915
778.41	22006.38951
778.599	21967.74221
778.789	22205.74986
778.979	22040.96984
779.169	22016.56009
779.358	22071.4828
779.548	22148.78609
779.738	21778.59374
779.927	21746.05543
780.117	21685.04879
780.307	21245.90589
780.496	21424.79353
780.686	21536.61402
780.875	21565.07934
781.065	21554.91307
781.254	21436.99154
781.444	21205.25396
781.633	21335.34582
781.823	21449.1897
782.012	21585.41218
782.202	21130.05217
782.391	20829.30099
782.581	20841.49185
782.77	20528.64037
782.96	20869.93777
783.149	20473.79997
783.338	20867.9059
783.528	21081.27561
783.717	20987.79378
783.906	20922.76806
784.096	20981.69744
784.285	21142.24668
784.474	20857.74656
784.663	20406.77696
784.853	20333.66616
785.042	20465.67573
785.231	20719.58994
785.42	20416.93167
785.61	20538.79633
785.799	20299.14351
785.988	20418.96262
786.177	19994.58451
786.366	20278.83663
786.555	20435.21041
786.744	20144.82179
786.933	20134.6699
787.122	20112.3361
787.312	19968.19385
787.501	19696.20846
787.69	20321.48156
787.879	20353.97417
788.068	20388.49875
788.257	20114.36643
788.445	19592.71141
788.634	20069.70027
788.823	20130.60917
789.012	20132.63953
789.201	19947.89383
789.39	19710.41479
789.579	19562.27317
789.768	20041.27741
789.957	19931.65412
790.145	19797.68673
790.334	19817.98365
790.523	19728.68037
790.712	19700.26739
790.9	19509.51578
791.089	19191.00185
791.278	19272.14224
791.467	18969.92747
791.655	19235.62825
791.844	18957.75964
792.033	19144.3491
792.221	18679.9666
792.41	19132.17918
792.599	18852.31114
792.787	19018.60026
792.976	19308.65756
793.164	18967.89949
793.353	19097.69851
793.541	19030.76882
793.73	19130.15087
793.918	19233.59974
794.107	18783.36989
794.295	18888.81132
794.484	19091.61381
794.672	19081.47273
794.861	18951.67578
795.049	19359.3755
795.238	18929.36859
795.426	18998.31965
795.614	18907.06189
795.803	18598.87313
795.991	18529.94857
796.179	18700.24095
796.368	18718.4882
796.556	18653.61053
796.744	18373.87113
796.932	18477.24456
797.121	17970.6046
797.309	18663.7474
797.497	18475.21754
797.685	18507.6504
797.874	18055.70413
798.062	18602.92765
798.25	18367.79065
798.438	18825.95071
798.626	18665.77479
798.814	18714.43322
799.002	18519.81298
799.19	18673.88437
799.378	18402.24717
799.566	18562.3831
799.755	17990.86582
799.943	18023.28452
800.131	18215.78954
800.318	17986.81355
800.506	17844.99283
800.694	17796.37249
800.882	17859.17413
801.07	17865.25189
801.258	17610.01253
801.446	18065.83545
801.634	17364.95047
801.822	17575.57951
802.01	17717.36862
802.197	18298.88088
802.385	18146.88924
802.573	18254.29451
802.761	18159.04781
802.949	18343.46906
803.136	18027.33692
803.324	18236.05515
803.512	18355.62978
803.699	18250.24129
803.887	18075.96686
804.075	18331.30846
804.262	17818.65657
804.45	17842.96694
804.638	17701.16333
804.825	18132.70441
805.013	17725.47134
805.201	17895.64112
805.388	17508.7416
805.576	17865.25189
805.763	17962.5002
805.951	17982.76129
806.138	17717.36862
806.326	17944.26553
806.513	17936.16132
806.701	17774.08883
806.888	17782.19193
807.075	18007.07506
807.263	17719.3943
807.45	18217.81609
807.638	17743.70267
807.825	18223.89574
808.012	17814.60489
808.2	17826.75997
808.387	17844.99283
808.574	18280.64078
808.761	17865.25189
808.949	18110.41432
809.136	17869.30374
809.323	18195.52431
809.51	18191.4713
809.698	17814.60489
809.885	18088.12467
810.072	18323.20148
810.259	18053.67788
810.446	18104.33528
810.633	18031.38934
810.82	17938.18737
811.008	18244.16149
811.195	17982.76129
811.382	17518.86833
811.569	18122.57249
811.756	17830.81169
811.943	18179.31238
812.13	17950.34372
812.317	18288.74745
812.504	18248.21469
812.691	18544.13855
812.878	18126.62525
813.064	18505.62332
813.251	18134.7308
813.438	18442.78565
813.625	17830.81169
813.812	17915.90105
813.999	17950.34372
814.186	17871.32967
814.372	18122.57249
814.559	17638.36984
814.746	17739.65124
814.933	17859.17413
815.12	17707.24029
815.306	17652.54874
815.493	17863.22596
815.68	17875.38154
815.866	17772.06306
816.053	18009.10123
816.24	17658.62546
816.426	17873.35561
816.613	17614.06353
816.799	17915.90105
816.986	17980.73516
817.173	17808.52739
817.359	17520.89369
817.546	17883.48533
817.732	17383.17665
817.919	17526.96977
818.105	17555.32523
818.292	17437.85669
818.478	17350.77473
818.665	17595.83411
818.851	17366.97559
819.037	17227.24944
819.224	17273.82325
819.41	17761.93427
819.597	17640.39539
819.783	17551.27441
819.969	17413.55417
820.156	17439.88192
820.342	17117.90826
820.528	17518.86833
820.714	17188.77659
820.901	17535.07127
821.087	17263.69837
821.273	17071.33953
821.459	17154.3544
821.646	17474.3113
821.832	17336.59913
822.018	17063.24076
822.204	16935.691
822.39	16787.9082
822.576	17024.77225
822.762	17061.21608
822.948	16838.51723
823.134	16949.86268
823.32	16749.44636
823.507	16883.05448
823.693	16986.30471
823.879	17008.57527
824.065	16931.64198
824.25	17042.99406
824.436	16964.03448
824.622	16789.93253
824.808	16986.30471
824.994	17263.69837
825.18	16850.66363
825.366	17004.52606
825.552	16514.64492
825.738	16664.4285
825.923	16648.23509
826.109	17211.05022
826.295	16686.69468
826.481	17186.75173
826.667	16903.29909
826.852	17174.60264
827.038	17012.6245
827.224	17042.99406
827.409	16721.10661
827.595	16510.59688
827.781	16148.32904
827.966	16591.5593
828.152	16336.5389
828.338	16514.64492
828.523	16122.0213
828.709	16344.6343
828.894	15660.66168
829.08	16041.07608
829.266	15996.55722
829.451	16061.31216
829.637	15757.78498
829.822	15780.04272
830.008	15747.66786
830.193	15960.1332
830.378	16174.63705
830.564	16579.41472
830.749	15907.52149
830.935	16186.7793
831.12	16083.57202
831.305	16275.82437
831.491	16160.47116
831.676	16470.11695
831.861	16073.45388
832.047	16314.27672
832.232	15850.86369
832.417	15982.39227
832.602	15830.62898
832.788	16085.59565
832.973	15656.61493
833.158	15498.79381
833.343	15371.32564
833.528	15824.5586
833.714	15486.6539
833.899	15980.36871
834.084	15693.03587
834.269	15446.18766
834.454	15219.5797
834.639	15567.58709
834.824	15239.81243
835.009	15423.93132
835.194	15255.99862
835.379	15597.93732
835.564	15134.60233
835.749	15415.83812
835.934	15140.67214
836.119	15458.32751
836.304	15100.20671
836.489	15741.59761
836.674	15336.92977
836.859	15310.6271
837.044	15334.90648
837.228	15345.02291
837.413	15365.25578
837.598	15292.41759
837.783	15100.20671
837.968	15221.60297
838.152	14804.80564
838.337	14845.27214
838.522	14865.5053
838.707	15047.60158
838.891	14547.83547
839.076	15090.09035
839.261	14849.31878
839.445	15011.18256
839.63	14792.66564
839.815	14691.49785
839.999	14588.30431
840.184	14640.91312
840.368	14442.6141
840.553	14636.86632
840.737	14808.85231
840.922	14814.92229
841.106	14717.80168
841.291	14634.84291
841.475	14477.0138
841.66	14608.53856
841.844	14236.20627
842.029	14031.80239
842.213	14260.49049
842.397	14185.61326
842.582	14159.3044
842.766	14357.62475
842.951	13904.29089
843.135	14390.00197
843.319	13902.26682
843.504	13975.13186
843.688	13946.79585
843.872	13956.91591
844.056	13993.3476
844.241	14387.97841
844.425	13728.18575
844.609	14074.30406
844.793	13774.74445
844.977	13780.8172
845.161	13505.4898
845.346	13845.59161
845.53	13566.22919
845.714	13592.5486
845.898	13562.18
846.082	13697.8205
846.266	13703.89361
846.45	13748.42886
846.634	13705.91797
846.818	13564.2046
847.002	13250.34648
847.186	13311.10076
847.37	13497.39097
847.554	13746.40457
847.738	13438.67263
847.922	13440.69745
848.106	13444.74709
848.29	13118.69859
848.473	13398.17534
848.657	13341.47647
848.841	13177.43617
849.025	13165.28388
849.209	12849.26313
849.392	13019.44326
849.576	12985.00499
849.76	12885.73342
849.944	12798.607
850.127	13317.17597
850.311	12506.75693
850.495	12952.59115
850.678	12944.48749
850.862	13147.05514
851.046	12735.78855
851.229	12851.2893
851.413	12565.54245
851.596	12802.65962
851.78	12851.2893
851.964	13402.22514
852.147	12877.62906
852.331	12989.05662
852.514	12715.52336
852.698	12480.40305
852.881	12401.33478
853.065	12360.783
853.248	12348.61693
853.431	12141.75475
853.615	12028.15053
853.798	12089.01293
853.982	12044.38119
854.165	12005.83256
854.348	11995.68771
854.532	12141.75475
854.715	12182.32192
854.898	12253.30738
855.081	12056.55385
855.265	12518.91989
855.448	12484.45757
855.631	12119.44153
855.814	11987.57168
855.997	11884.08105
856.181	11916.55099
856.364	12145.8116
856.547	11855.66812
856.73	11963.22284
856.913	11760.26972
857.096	11752.14983
857.279	11666.8825
857.462	11752.14983
857.645	11463.80045
857.828	11603.93697
858.011	11916.55099
858.194	11504.42435
858.377	11437.39286
858.56	11406.92052
858.743	11380.50938
858.926	11486.14407
859.109	11309.39412
859.292	11532.85882
859.475	11402.85738
859.658	11526.76587
859.841	11354.09657
860.023	11138.66644
860.206	11028.87346
860.389	11175.25714
860.572	11104.10538
860.755	11404.88896
860.937	11291.10535
861.12	11199.64904
861.303	11402.85738
861.486	11398.7942
861.668	10951.59254
861.851	10955.66036
862.034	10819.36359
862.216	10939.38882
862.399	10475.33252
862.581	10489.58937
862.764	10361.25487
862.947	10640.26686
863.129	10609.72965
863.312	10884.46698
863.494	10809.19011
863.677	11012.60513
863.859	10868.19225
864.042	10788.84227
864.224	10475.33252
864.406	10597.51399
864.589	10467.18546
864.771	10656.55225
864.954	10110.54457
865.136	10314.38963
865.318	10120.74009
865.501	10330.69138
865.683	10467.18546
865.865	10719.65074
866.048	10444.78
866.23	10459.0382
866.412	10108.50542
866.594	10454.96449
866.777	10275.66954
866.959	10359.2174
867.141	10002.45028
867.323	10238.98287
867.505	9929.00479
867.687	10100.34869
867.869	10296.04914
868.052	10351.06737
868.234	10063.64062
868.416	10277.70756
868.598	10086.07387
868.78	10098.30947
868.962	9863.70403
869.144	9867.78577
869.326	9602.34707
869.508	9998.37047
869.69	9920.84302
869.872	9890.23428
870.054	9980.01059
870.236	9980.01059
870.417	9994.2906
870.599	9904.51877
870.781	9583.96091
870.963	9653.41308
871.145	9598.26136
871.327	9745.30757
871.508	9406.1617
871.69	9835.13019
871.872	9350.95777
872.054	9806.55342
872.235	9320.28374
872.417	9641.15812
872.599	9393.89519
872.78	9880.03063
872.962	9724.88925
873.144	9516.53407
873.325	9404.11732
873.507	9563.53035
873.689	9577.83191
873.87	9612.56105
874.052	9426.60458
874.233	9622.77464
874.415	9177.08866
874.596	9434.78128
874.778	8939.60947
874.959	9107.50684
875.141	8939.60947
875.322	9365.27104
875.503	9481.79227
875.685	9812.67726
875.866	9714.67952
876.048	9492.01093
876.229	9291.65128
876.41	9467.48548
876.592	9308.01308
876.773	9373.4497
876.954	9160.71825
877.136	9438.86953
877.317	9308.01308
877.498	9479.74849
877.679	9254.83333
877.86	9275.28842
878.042	9295.74183
878.223	9782.05671
878.404	9557.40088
878.585	9712.63753
878.766	9418.42762
878.947	9496.09828
879.128	9318.23867
879.309	9365.27104
879.49	9416.38334
879.672	9571.70276
879.853	9207.78026
880.034	9518.57756
880.215	9586.00388
880.396	9637.07301
880.576	9541.05491
880.757	9530.83817
880.938	9148.43972
881.119	9741.22403
881.3	9575.78887
881.481	9773.89066
881.662	9822.88336
881.843	9953.48871
882.023	9904.51877
882.204	9831.04797
882.385	9528.79478
882.566	9688.13243
882.747	9645.24317
882.927	9782.05671
883.108	9602.34707
883.289	9512.44704
883.469	9285.51533
883.65	9573.74583
883.831	9205.73427
884.011	9459.30982
884.192	9367.31573
884.373	9520.62104
884.553	9765.72437
884.734	9765.72437
884.914	9416.38334
885.095	9438.86953
885.275	9391.85071
885.456	9684.04804
885.636	9788.18109
885.817	10020.80873
885.997	9669.75216
886.178	9818.80097
886.358	9461.35376
886.538	9481.79227
886.719	9013.33499
886.899	9361.18162
887.08	9541.05491
887.26	9512.44704
887.44	9565.57348
887.621	9726.93115
887.801	9336.64368
887.981	9679.96358
888.161	9121.83413
888.342	9263.01557
888.522	9363.22634
888.702	9301.87753
888.882	9518.57756
889.062	9080.89678
889.242	9285.51533
889.423	9506.31637
889.603	9326.41884
889.783	9308.01308
889.963	9136.16057
890.143	9365.27104
890.323	9338.6886
890.503	9739.18223
890.683	9336.64368
890.863	9775.93219
891.043	9111.60043
891.223	9504.27279
891.403	9127.97414
891.583	9305.96792
891.763	9070.66136
891.943	9445.00178
892.122	9037.90511
892.302	9426.60458
892.482	9113.64721
892.662	9252.78773
892.842	9046.09459
893.022	9183.22729
893.201	8933.46465
893.381	9324.37382
893.561	9209.82623
893.741	9518.57756
893.92	9301.87753
894.1	9236.42232
894.28	8867.90986
894.459	8890.44638
894.639	8687.53881
894.819	9054.28379
894.998	8806.43555
895.178	8849.46927
895.357	8779.79163
895.537	9154.57906
895.716	9031.76281
895.896	9136.16057
896.075	8908.88374
896.255	8865.86098
896.434	8904.78668
896.614	8818.73171
896.793	8603.45368
896.973	8578.83746
897.152	8433.13577
897.331	8808.48496
897.511	8513.18095
897.69	8865.86098
897.87	8644.47473
898.049	8463.92581
898.228	8449.55766
898.407	8513.18095
898.587	8316.09401
898.766	8307.87818
898.945	8022.18134
899.124	8073.59419
899.304	8213.37358
899.483	8439.29412
899.662	8120.88287
899.841	8020.12456
900.02	7888.44831
900.199	7824.63731
900.378	7668.11255
900.557	7941.95191
900.737	7721.67415
900.916	7906.97036
901.095	7532.08404
901.274	7766.98439
901.453	7750.50911
901.632	7847.2822
901.811	7492.90703
901.989	7569.19195
902.168	7286.58328
902.347	7742.27097
902.526	7383.58257
902.705	7678.41397
902.884	7451.65967
903.063	7507.34157
903.242	7600.10991
903.42	7682.53439
903.599	7525.89871
903.778	7428.96993
903.957	7218.4484
904.135	7154.42098
904.314	6943.5987
904.493	7189.53543
904.672	7001.49474
904.85	6885.68495
905.029	6999.42733
905.207	6964.27789
905.386	6728.40062
905.565	6771.87394
905.743	6647.63762
905.922	6527.46373
906.1	6320.08415
906.279	6587.56039
906.457	6359.50419
906.636	6691.12973
906.814	6521.24573
906.993	6517.10027
907.171	6338.75785
907.35	6338.75785
907.528	6097.92923
907.707	6201.77336
907.885	5848.46324
908.063	6127.0115
908.242	6048.06317
908.42	6384.39672
908.598	5896.30385
908.777	5944.13199
908.955	5831.8201
909.133	5883.8249
909.311	5829.7396
909.49	5806.85256
909.668	5636.15008
909.846	5644.48071
910.024	5406.90996
910.202	5894.22409
910.38	5738.1743
910.559	5879.66506
910.737	5827.65908
910.915	6012.73318
911.093	5946.21119
911.271	6326.30893
911.449	6045.98512
911.627	6068.84234
911.805	5833.90058
911.983	5915.0207
912.161	5702.78456
912.339	6212.15454
912.517	5813.09477
912.695	6210.07835
912.872	6014.8116
913.05	6214.23071
913.228	6181.00923
913.406	6326.30893
913.584	6178.93268
913.762	6147.78174
913.939	6068.84234
914.117	6234.99108
914.295	5939.97351
914.473	5994.02631
914.65	6168.54962
914.828	6278.58025
915.006	6039.75084
915.184	6257.82479
915.361	5727.76626
915.539	5765.23244
915.716	5719.43941
915.894	5629.90185
916.072	5513.22944
916.249	5906.70234
916.427	5752.74457
916.604	6012.73318
916.782	5677.79946
916.959	5856.78425
917.137	5927.49753
917.314	5717.35763
917.492	5444.44147
917.669	5523.64963
917.847	5296.35637
918.024	5473.62737
918.201	5352.68435
918.379	5594.49126
918.556	5244.18561
918.733	5398.56859
918.911	5054.16102
919.088	5254.62093
919.265	5166.9461
919.442	5590.32486
919.62	5037.44636
919.797	5548.65566
919.974	5256.70792
920.151	5352.68435
920.328	5006.10241
920.506	4926.6745
920.683	5070.87419
920.86	5026.99896
921.037	4834.66395
921.214	4999.83299
921.391	4761.4422
921.568	5110.56202
921.745	4960.12188
921.922	5068.78512
922.099	5029.08848
922.276	5267.14254
922.453	4742.60926
922.63	4978.93344
922.807	4684.00618
922.984	4803.28661
923.161	4587.69143
923.338	4874.40121
923.514	4727.96015
923.691	4652.60441
923.868	4508.09149
924.045	4717.49582
924.222	4510.18664
924.399	4650.51077
924.575	4283.78445
924.752	4711.21695
924.929	4499.71069
925.105	4654.69801
925.282	4533.23178
925.459	4524.85203
925.635	4386.53545
925.812	4694.47231
925.989	4474.56617
926.165	4461.99272
926.342	4231.34058
926.518	4302.66097
926.695	4141.10605
926.871	4279.58944
927.048	3863.86722
927.224	4038.23338
927.401	3905.8959
927.577	4082.32778
927.754	3870.17203
927.93	4015.13268
928.107	3777.68358
928.283	3922.70513
928.459	3786.0932
928.636	3941.61396
928.812	3756.65817
928.988	3807.11587
929.165	3502.09937
929.341	3907.99713
929.517	3588.38565
929.693	3468.41833
929.87	3428.4161
930.046	3409.46543
930.222	3262.02298
930.398	3491.57455
930.574	3120.82208
930.751	3567.34308
930.927	3449.47071
931.103	3632.56896
931.279	3363.13553
931.455	3718.80754
931.631	3441.04908
931.807	3588.38565
931.983	3390.51332
932.159	3335.7548
932.335	3021.72767
932.511	3053.35729
932.687	2867.74853
932.863	3076.55013
933.039	2850.86939
933.215	3042.81447
933.391	2871.96817
933.566	2962.67652
933.742	2838.20944
933.918	2783.34387
934.094	2709.4719
934.27	2844.53948
934.445	2736.91196
934.621	2800.22657
934.797	2445.51838
934.973	2622.91594
935.148	2268.04461
935.324	2242.68566
935.5	2318.75853
935.675	2280.7236
935.851	1959.43165
936.027	2179.28272
936.202	1895.99984
936.378	2075.70877
936.553	1974.23165
936.729	2014.40152
936.904	1938.28829
937.08	1879.08385
937.255	1508.9859
937.431	1659.1505
937.606	1221.34497
937.782	1434.95916
937.957	1278.44787
938.133	1255.18349
938.308	976.04747
938.483	1181.16278
938.659	908.39304
938.834	1105.03195
939.009	995.07656
939.185	1081.77092
939.36	756.20138
939.535	971.81885
939.71	821.7226
939.886	847.08807
940.061	813.26773
940.236	762.54173
940.411	720.27449
940.586	790.01762
940.761	587.16227
940.937	775.2227
941.112	585.04977
941.287	688.57688
941.462	620.96399
941.637	610.4006
941.812	470.99526
941.987	673.78553
942.162	525.90526
942.337	627.30218
942.512	635.75326
942.687	547.02707
942.862	559.70082
943.037	511.12083
943.212	578.71235
943.386	420.31815
943.561	420.31815
943.736	420.31815
943.911	468.88354
944.086	477.33052
944.26	363.31745
944.435	397.09419
944.61	390.76073
944.785	416.09547
944.959	340.09847
945.134	498.44903
945.309	449.87871
945.483	354.87394
945.658	354.87394
945.833	445.65559
946.007	390.76073
946.182	432.98659
946.357	342.2092
946.531	426.6523
946.706	454.1019
946.88	418.2068
947.055	449.87871
947.229	549.13933
947.404	441.43252
947.578	504.78487
947.752	424.5409
947.927	475.21875
948.101	568.15026
948.276	509.00883
948.45	407.65029
948.624	528.01738
948.799	437.20952
948.973	492.11332
949.147	445.65559
949.321	494.22521
949.496	447.76714
949.67	407.65029
949.844	462.54846
950.018	509.00883
950.193	435.09805
950.367	587.16227
950.541	418.2068
950.715	593.49984
950.889	462.54846
951.063	517.45693
951.237	382.31634
951.411	468.88354
951.585	443.54405
951.759	483.66592
951.933	566.03788
952.107	534.35382
952.281	411.87285
952.455	492.11332
952.629	479.44231
952.803	589.27478
952.977	428.76371
953.151	637.86606
953.325	536.46599
953.499	635.75326
953.672	568.15026
953.846	616.7386
954.02	439.32102
954.194	656.88183
954.368	449.87871
954.541	542.8026
954.715	481.5541
954.889	610.4006
955.062	566.03788
955.236	610.4006
955.41	513.23285
955.583	601.95012
955.757	555.47618
955.93	559.70082
956.104	460.4368
956.278	547.02707
956.451	445.65559
956.625	456.21352
956.798	449.87871
956.972	563.92551
957.145	477.33052
957.319	601.95012
957.492	435.09805
957.665	587.16227
957.839	511.12083
958.012	517.45693
958.185	568.15026
958.359	547.02707
958.532	525.90526
958.705	528.01738
958.879	500.56096
959.052	572.37505
959.225	523.79316
959.398	544.91483
959.572	492.11332
959.745	540.69038
959.918	445.65559
960.091	500.56096
960.264	435.09805
960.438	521.68107
960.611	390.76073
960.784	530.12951
960.957	399.20538
961.13	534.35382
961.303	502.6729
961.476	430.87514
961.649	356.9848
961.822	416.09547
961.995	407.65029
962.168	475.21875
962.341	407.65029
962.514	534.35382
962.686	420.31815
962.859	416.09547
963.032	399.20538
963.205	506.89684
963.378	443.54405
963.551	454.1019
963.723	352.76311
963.896	487.88959
964.069	420.31815
964.242	521.68107
964.414	399.20538
964.587	449.87871
964.76	350.65229
964.932	403.4278
965.105	382.31634
965.278	435.09805
965.45	340.09847
965.623	509.00883
965.795	466.77183
965.968	470.99526
966.14	359.09566
966.313	449.87871
966.485	365.42837
966.658	432.98659
966.83	426.6523
967.003	490.00145
967.175	432.98659
967.348	426.6523
967.52	418.2068
967.692	466.77183
967.865	443.54405
968.037	441.43252
968.209	325.32385
968.382	456.21352
968.554	342.2092
968.726	428.76371
968.898	403.4278
969.071	373.87222
969.243	281.00526
969.415	337.98775
969.587	283.11549
969.759	297.88759
969.932	251.46407
970.104	437.20952
970.276	268.3443
970.448	308.43963
970.62	344.31995
970.792	348.54149
970.964	318.99213
971.136	350.65229
971.308	266.2342
971.48	281.00526
971.652	255.68401
971.824	382.31634
971.996	274.6747
972.168	276.78487
972.339	219.81696
972.511	316.8816
972.683	281.00526
972.855	316.8816
973.027	323.21326
973.199	306.32919
973.37	323.21326
973.542	310.5501
973.714	365.42837
973.886	289.44628
974.057	205.04983
974.229	240.91455
974.401	202.94032
974.572	224.03632
974.744	234.58507
974.915	253.57403
975.087	262.01407
975.259	291.55658
975.43	221.92663
975.602	230.36551
975.773	221.92663
975.945	314.77108
976.116	243.02442
976.288	247.24421
976.459	205.04983
976.63	243.02442
976.802	188.1743
976.973	186.06495
977.145	150.20917
977.316	219.81696
977.487	133.33796
977.659	196.6119
977.83	164.97259
978.001	158.64528
978.172	238.8047
978.344	221.92663
978.515	148.10019
978.686	171.30008
978.857	200.83082
979.028	190.28367
979.2	137.55563
979.371	232.47528
979.542	175.51851
979.713	171.30008
979.884	179.73703
980.055	116.46812
980.226	205.04983
980.397	162.86346
980.568	156.53622
980.739	188.1743
980.91	171.30008
981.081	137.55563
981.252	171.30008
981.423	196.6119
981.594	164.97259
981.765	99.59967
981.936	148.10019
982.106	70.08331
982.277	150.20917
982.448	158.64528
982.619	171.30008
982.79	205.04983
982.96	70.08331
983.131	196.6119
983.302	154.42718
983.472	135.44678
983.643	217.70731
983.814	171.30008
983.984	120.68545
984.155	103.81665
984.326	105.92518
984.496	112.25088
984.667	198.72135
984.837	198.72135
985.008	122.79415
985.178	129.12037
985.349	105.92518
985.519	80.62436
985.69	95.38278
985.86	95.38278
986.031	179.73703
986.201	70.08331
986.371	129.12037
986.542	86.94927
986.712	110.14229
986.882	82.73264
987.053	78.51611
987.223	103.81665
987.393	145.99124
987.563	108.03372
987.734	154.42718
987.904	118.57677
988.074	112.25088
988.244	120.68545
988.414	36.35578
988.585	141.77339
988.755	97.49122
988.925	105.92518
989.095	114.35949
989.265	27.92483
989.435	103.81665
989.605	36.35578
989.775	171.30008
989.945	89.05761
990.115	91.16598
990.285	116.46812
990.455	61.65088
990.625	150.20917
990.795	114.35949
990.965	89.05761
991.134	76.40788
991.304	175.51851
991.474	112.25088
991.644	97.49122
991.814	53.21881
991.984	133.33796
992.153	103.81665
992.323	67.97517
992.493	61.65088
992.662	2.63424
992.832	70.08331
993.002	99.59967
993.171	49.00291
993.341	53.21881
993.511	82.73264
993.68	-47.93647
993.85	97.49122
994.019	27.92483
994.189	82.73264
994.358	-7.90249
994.528	44.78711
994.697	21.60186
994.867	46.895
995.036	63.75895
995.206	65.86705
995.375	36.35578
995.544	38.46358
995.714	105.92518
995.883	34.24801
996.052	80.62436
996.222	-28.97412
996.391	72.19148
996.56	-3.68787
996.73	8.95656
996.899	112.25088
997.068	80.62436
997.237	6.8491
997.406	91.16598
997.576	108.03372
997.745	59.54283
997.914	6.8491
998.083	99.59967
998.252	72.19148
998.421	2.63424
998.59	105.92518
998.759	57.4348
998.928	46.895
999.097	44.78711
999.266	-47.93647
999.435	-12.11701
999.604	19.49425
999.773	38.46358
999.942	15.2791
1000.111	0.52684
1000.28	61.65088
1000.448	95.38278
1000.617	65.86705
1000.786	53.21881
1000.955	46.895
1001.124	13.17157
1001.292	55.32679
1001.461	30.03253
1001.63	91.16598
1001.798	70.08331
1001.967	40.5714
1002.136	76.40788
1002.304	-35.29512
1002.473	57.4348
1002.642	65.86705
1002.81	-47.93647
1002.979	32.14026
1003.147	21.60186
1003.316	-22.65289
1003.484	2.63424
1003.653	-1.58052
1003.821	-5.79519
1003.99	63.75895
1004.158	46.895
1004.327	116.46812
1004.495	25.81715
1004.663	-24.75999
1004.832	30.03253
1005	38.46358
1005.168	65.86705
1005.337	103.81665
1005.505	36.35578
1005.673	53.21881
1005.842	21.60186
1006.01	-1.58052
1006.178	6.8491
1006.346	82.73264
1006.514	15.2791
1006.683	-31.08114
1006.851	27.92483
1007.019	34.24801
1007.187	42.67924
1007.355	-31.08114
1007.523	0.52684
1007.691	70.08331
1007.859	-14.22423
1008.027	11.06405
1008.195	-56.36353
1008.363	-1.58052
1008.531	-14.22423
1008.699	-54.2568
1008.867	-5.79519
1009.035	63.75895
1009.203	-92.17399
1009.37	27.92483
1009.538	11.06405
1009.706	-1.58052
1009.874	4.74166
1010.042	36.35578
1010.209	21.60186
1010.377	2.63424
1010.545	40.5714
1010.713	65.86705
1010.88	95.38278
1011.048	6.8491
1011.216	-35.29512
1011.383	-5.79519
1011.551	-22.65289
1011.718	11.06405
1011.886	15.2791
1012.054	-20.54576
1012.221	61.65088
1012.389	44.78711
1012.556	-14.22423
1012.724	27.92483
1012.891	6.8491
1013.058	-14.22423
1013.226	21.60186
1013.393	-45.82964
1013.561	-12.11701
1013.728	23.70949
1013.895	8.95656
1014.063	19.49425
1014.23	-20.54576
1014.397	17.38667
1014.565	44.78711
1014.732	-14.22423
1014.899	2.63424
1015.066	13.17157
1015.233	30.03253
1015.401	-12.11701
1015.568	-14.22423
1015.735	36.35578
1015.902	15.2791
1016.069	17.38667
1016.236	40.5714
1016.403	-22.65289
1016.57	-14.22423
1016.737	19.49425
1016.904	-1.58052
1017.071	-31.08114
1017.238	19.49425
1017.405	-71.10991
1017.572	11.06405
1017.739	17.38667
1017.906	-14.22423
1018.073	19.49425
1018.24	-12.11701
1018.407	80.62436
1018.573	40.5714
1018.74	-14.22423
1018.907	-5.79519
1019.074	36.35578
1019.241	2.63424
1019.407	-54.2568
1019.574	-28.97412
1019.741	-26.86706
1019.907	-69.00336
1020.074	11.06405
1020.241	-39.50901
1020.407	-35.29512
1020.574	-31.08114
1020.74	61.65088
1020.907	-62.68356
1021.073	-60.57691
1021.24	4.74166
1021.406	8.95656
1021.573	-28.97412
1021.739	-5.79519
1021.906	70.08331
1022.072	40.5714
1022.239	-35.29512
1022.405	30.03253
1022.571	21.60186
1022.738	44.78711
1022.904	36.35578
1023.07	-14.22423
1023.237	13.17157
1023.403	-18.43861
1023.569	67.97517
1023.735	72.19148
1023.902	-22.65289
1024.068	27.92483
1024.234	-24.75999
1024.4	38.46358
1024.566	53.21881
1024.732	-5.79519
1024.898	27.92483
1025.065	23.70949
1025.231	-14.22423
1025.397	13.17157
1025.563	25.81715
1025.729	127.01161
1025.895	-26.86706
1026.061	-35.29512
1026.227	57.4348
1026.392	-81.64228
1026.558	-66.89679
1026.724	53.21881
1026.89	13.17157
1027.056	-47.93647
1027.222	-12.11701
1027.388	53.21881
1027.553	-22.65289
1027.719	61.65088
1027.885	-58.47023
1028.051	-1.58052
1028.216	8.95656
1028.382	61.65088
1028.548	6.8491
1028.713	-35.29512
1028.879	13.17157
1029.045	11.06405
1029.21	-14.22423
1029.376	89.05761
1029.541	40.5714
1029.707	11.06405
1029.873	23.70949
1030.038	34.24801
1030.204	27.92483
1030.369	-22.65289
1030.534	6.8491
1030.7	36.35578
1030.865	11.06405
1031.031	-14.22423
1031.196	-5.79519
1031.361	-41.61591
1031.527	11.06405
1031.692	-22.65289
1031.857	-3.68787
1032.023	2.63424
1032.188	-39.50901
1032.353	42.67924
1032.518	-14.22423
1032.684	72.19148
1032.849	4.74166
1033.014	-5.79519
1033.179	-3.68787
1033.344	23.70949
1033.509	42.67924
1033.674	-10.00976
1033.839	-10.00976
1034.004	2.63424
1034.17	27.92483
1034.335	-20.54576
1034.5	-10.00976
1034.664	-1.58052
1034.829	-56.36353
1034.994	-10.00976
1035.159	-1.58052
1035.324	-56.36353
1035.489	-81.64228
1035.654	19.49425
1035.819	4.74166
1035.984	53.21881
1036.148	-14.22423
1036.313	-10.00976
1036.478	-64.79019
1036.643	2.63424
1036.807	53.21881
1036.972	-60.57691
1037.137	-52.15005
1037.301	8.95656
1037.466	-64.79019
1037.631	61.65088
1037.795	-22.65289
1037.96	-56.36353
1038.124	4.74166
1038.289	-39.50901
1038.454	11.06405
1038.618	30.03253
1038.783	-1.58052
1038.947	11.06405
1039.111	53.21881
1039.276	11.06405
1039.44	2.63424
1039.605	-62.68356
1039.769	-33.18815
1039.933	-7.90249
1040.098	46.895
1040.262	-22.65289
1040.426	-28.97412
1040.591	-10.00976
1040.755	-106.91731
1040.919	-98.49271
1041.083	-22.65289
1041.248	30.03253
1041.412	-5.79519
1041.576	15.2791
1041.74	-64.79019
1041.904	-26.86706
1042.068	-26.86706
1042.232	-31.08114
1042.397	57.4348
1042.561	11.06405
1042.725	32.14026
1042.889	-10.00976
1043.053	-47.93647
1043.217	11.06405
1043.381	-45.82964
1043.544	-54.2568
1043.708	-45.82964
1043.872	15.2791
1044.036	-26.86706
1044.2	-37.40208
1044.364	-5.79519
1044.528	6.8491
1044.691	49.00291
1044.855	103.81665
1045.019	-43.72279
1045.183	19.49425
1045.346	11.06405
1045.51	-39.50901
1045.674	11.06405
1045.837	-60.57691
1046.001	-10.00976
1046.165	-52.15005
1046.328	-26.86706
1046.492	2.63424
1046.655	30.03253
1046.819	-5.79519
1046.983	13.17157
1047.146	-18.43861
1047.31	-39.50901
1047.473	-10.00976
1047.636	2.63424
1047.8	30.03253
1047.963	-3.68787
1048.127	-5.79519
1048.29	-5.79519
