Data from mixed_try1_USB4F045381__16__00038.txt Node

Date: Thu Apr 03 19:33:31 EDT 2025
User: mmckonesweet
Spectrometer: USB4F04538
Trigger mode: 4
Integration Time (sec): 2.700000E-3
Scans to average: 1
Electric dark correction enabled: true
Nonlinearity correction enabled: true
Boxcar width: 0
XAxis mode: Wavelengths
Number of Pixels in Spectrum: 3648
>>>>>Begin Spectral Data<<<<<
345.52	-67.24789
345.736	-67.24789
345.952	-67.24789
346.168	-1.93175
346.384	4.39042
346.6	12.82031
346.816	-1.93175
347.032	-29.32529
347.248	25.46587
347.464	33.89672
347.68	38.11228
347.896	0.17561
348.112	-25.11117
348.328	-37.75323
348.544	-1.93175
348.76	-1.93175
348.975	-12.46822
349.191	4.39042
349.407	-20.89695
349.623	46.54368
349.839	8.60532
350.055	-4.03909
350.27	12.82031
350.486	-4.03909
350.702	-20.89695
350.918	8.60532
351.133	-20.89695
351.349	29.68125
351.565	67.62381
351.781	4.39042
351.996	-20.89695
352.212	63.4076
352.428	46.54368
352.644	46.54368
352.859	8.60532
353.075	-16.68263
353.291	17.0354
353.506	33.89672
353.722	38.11228
353.938	21.25059
354.153	59.19149
354.369	-60.92802
354.584	8.60532
354.8	29.68125
355.016	-16.68263
355.231	8.60532
355.447	-6.14641
355.662	-18.7898
355.878	31.78897
356.093	54.97546
356.309	-58.82135
356.524	12.82031
356.74	63.4076
356.955	-46.18078
357.171	-1.93175
357.386	12.82031
357.602	50.75953
357.817	-6.14641
358.033	-1.93175
358.248	-35.64629
358.464	8.60532
358.679	-63.03467
358.895	-46.18078
359.11	42.32793
359.325	-37.75323
359.541	4.39042
359.756	29.68125
359.972	-29.32529
360.187	-79.88693
360.402	-94.6313
360.618	63.4076
360.833	-33.53931
361.048	-4.03909
361.264	27.57355
361.479	42.32793
361.694	-58.82135
361.909	82.38126
362.125	23.35822
362.34	0.17561
362.555	-23.00407
362.77	-31.43231
362.986	12.82031
363.201	42.32793
363.416	40.22009
363.631	25.46587
363.847	71.84011
364.062	19.14299
364.277	76.05651
364.492	38.11228
364.707	-4.03909
364.922	-4.03909
365.138	-12.46822
365.353	10.7128
365.568	-54.60793
365.783	-35.64629
365.998	46.54368
366.213	-14.57544
366.428	0.17561
366.643	0.17561
366.858	-35.64629
367.073	-18.7898
367.288	6.49786
367.503	14.92785
367.718	63.4076
367.933	82.38126
368.148	23.35822
368.363	8.60532
368.578	23.35822
368.793	48.65159
369.008	-6.14641
369.223	14.92785
369.438	0.17561
369.653	8.60532
369.868	0.17561
370.083	4.39042
370.298	29.68125
370.513	29.68125
370.728	48.65159
370.943	61.29953
371.157	17.0354
371.372	-29.32529
371.587	-10.36097
371.802	-12.46822
372.017	33.89672
372.232	-25.11117
372.446	17.0354
372.661	19.14299
372.876	-31.43231
373.091	-71.461
373.306	19.14299
373.52	65.5157
373.735	-44.07393
373.95	-41.96706
374.165	4.39042
374.379	42.32793
374.594	-4.03909
374.809	-16.68263
375.023	40.22009
375.238	36.00449
375.453	-1.93175
375.667	50.75953
375.882	31.78897
376.097	-16.68263
376.311	29.68125
376.526	-29.32529
376.741	6.49786
376.955	-1.93175
377.17	-37.75323
377.384	-16.68263
377.599	-16.68263
377.813	38.11228
378.028	25.46587
378.242	-35.64629
378.457	-88.31244
378.672	40.22009
378.886	14.92785
379.101	12.82031
379.315	54.97546
379.53	-8.2537
379.744	21.25059
379.958	14.92785
380.173	38.11228
380.387	-63.03467
380.602	4.39042
380.816	8.60532
381.031	-71.461
381.245	0.17561
381.459	50.75953
381.674	25.46587
381.888	27.57355
382.103	4.39042
382.317	-29.32529
382.531	2.283
382.746	6.49786
382.96	-67.24789
383.174	21.25059
383.388	82.38126
383.603	12.82031
383.817	12.82031
384.031	2.283
384.246	90.81458
384.46	57.08346
384.674	2.283
384.888	-54.60793
385.103	12.82031
385.317	-29.32529
385.531	4.39042
385.745	29.68125
385.959	114.00805
386.174	-33.53931
386.388	-23.00407
386.602	29.68125
386.816	54.97546
387.03	-8.2537
387.244	12.82031
387.458	-8.2537
387.672	12.82031
387.887	6.49786
388.101	6.49786
388.315	-25.11117
388.529	54.97546
388.743	-4.03909
388.957	-10.36097
389.171	54.97546
389.385	-1.93175
389.599	-12.46822
389.813	40.22009
390.027	114.00805
390.241	-1.93175
390.455	44.4358
390.669	88.70622
390.883	4.39042
391.097	-25.11117
391.311	-23.00407
391.525	-27.21824
391.738	-60.92802
391.952	-18.7898
392.166	-29.32529
392.38	4.39042
392.594	57.08346
392.808	-20.89695
393.022	-1.93175
393.236	0.17561
393.449	12.82031
393.663	126.66015
393.877	-6.14641
394.091	6.49786
394.305	8.60532
394.518	21.25059
394.732	-10.36097
394.946	-16.68263
395.16	-63.03467
395.373	46.54368
395.587	4.39042
395.801	-46.18078
396.015	0.17561
396.228	23.35822
396.442	-25.11117
396.656	-8.2537
396.869	-63.03467
397.083	-4.03909
397.297	42.32793
397.51	65.5157
397.724	29.68125
397.938	-29.32529
398.151	92.92297
398.365	42.32793
398.578	-60.92802
398.792	-12.46822
399.005	-44.07393
399.219	97.13981
399.433	-4.03909
399.646	8.60532
399.86	-52.50118
400.073	-54.60793
400.287	59.19149
400.5	12.82031
400.714	29.68125
400.927	67.62381
401.141	0.17561
401.354	-54.60793
401.567	23.35822
401.781	59.19149
401.994	82.38126
402.208	95.03138
402.421	17.0354
402.635	-12.46822
402.848	4.39042
403.061	29.68125
403.275	57.08346
403.488	4.39042
403.701	17.0354
403.915	-4.03909
404.128	8.60532
404.341	-29.32529
404.555	33.89672
404.768	-33.53931
404.981	-29.32529
405.195	-25.11117
405.408	21.25059
405.621	38.11228
405.834	17.0354
406.048	29.68125
406.261	80.27299
406.474	-46.18078
406.687	17.0354
406.9	21.25059
407.114	-12.46822
407.327	-27.21824
407.54	73.9483
407.753	25.46587
407.966	4.39042
408.179	17.0354
408.392	4.39042
408.605	38.11228
408.819	-10.36097
409.032	50.75953
409.245	57.08346
409.458	61.29953
409.671	-20.89695
409.884	12.82031
410.097	-4.03909
410.31	12.82031
410.523	54.97546
410.736	-16.68263
410.949	31.78897
411.162	80.27299
411.375	14.92785
411.588	17.0354
411.801	-10.36097
412.014	-12.46822
412.227	21.25059
412.44	-25.11117
412.653	-8.2537
412.865	-29.32529
413.078	-33.53931
413.291	-4.03909
413.504	-16.68263
413.717	57.08346
413.93	40.22009
414.143	0.17561
414.356	6.49786
414.568	12.82031
414.781	-12.46822
414.994	-52.50118
415.207	40.22009
415.42	38.11228
415.632	48.65159
415.845	31.78897
416.058	54.97546
416.271	-33.53931
416.483	17.0354
416.696	-35.64629
416.909	-25.11117
417.121	61.29953
417.334	57.08346
417.547	33.89672
417.759	59.19149
417.972	-20.89695
418.185	2.283
418.397	59.19149
418.61	-20.89695
418.823	17.0354
419.035	42.32793
419.248	33.89672
419.46	-69.35446
419.673	99.24826
419.885	-12.46822
420.098	46.54368
420.311	21.25059
420.523	76.05651
420.736	-16.68263
420.948	46.54368
421.161	67.62381
421.373	90.81458
421.586	-58.82135
421.798	-20.89695
422.01	71.84011
422.223	105.57375
422.435	38.11228
422.648	40.22009
422.86	21.25059
423.073	17.0354
423.285	54.97546
423.497	29.68125
423.71	-8.2537
423.922	-20.89695
424.134	54.97546
424.347	88.70622
424.559	114.00805
424.771	25.46587
424.984	42.32793
425.196	17.0354
425.408	4.39042
425.621	12.82031
425.833	-1.93175
426.045	-12.46822
426.257	-16.68263
426.47	31.78897
426.682	42.32793
426.894	21.25059
427.106	-16.68263
427.318	-41.96706
427.531	33.89672
427.743	21.25059
427.955	-16.68263
428.167	44.4358
428.379	-12.46822
428.591	-1.93175
428.804	17.0354
429.016	52.86748
429.228	54.97546
429.44	80.27299
429.652	4.39042
429.864	-1.93175
430.076	12.82031
430.288	-6.14641
430.5	12.82031
430.712	29.68125
430.924	-46.18078
431.136	48.65159
431.348	48.65159
431.56	12.82031
431.772	71.84011
431.984	42.32793
432.196	-4.03909
432.408	-44.07393
432.62	-109.3744
432.832	12.82031
433.044	-4.03909
433.256	-29.32529
433.468	12.82031
433.679	-41.96706
433.891	-4.03909
434.103	59.19149
434.315	-27.21824
434.527	50.75953
434.739	29.68125
434.95	-88.31244
435.162	17.0354
435.374	29.68125
435.586	12.82031
435.798	-16.68263
436.009	46.54368
436.221	-20.89695
436.433	25.46587
436.645	46.54368
436.856	25.46587
437.068	50.75953
437.28	0.17561
437.491	-18.7898
437.703	38.11228
437.915	38.11228
438.126	31.78897
438.338	14.92785
438.55	25.46587
438.761	63.4076
438.973	50.75953
439.184	4.39042
439.396	-23.00407
439.608	48.65159
439.819	63.4076
440.031	-44.07393
440.242	80.27299
440.454	-20.89695
440.665	31.78897
440.877	-10.36097
441.088	-8.2537
441.3	-1.93175
441.511	29.68125
441.723	4.39042
441.934	21.25059
442.146	8.60532
442.357	36.00449
442.569	38.11228
442.78	-25.11117
442.991	65.5157
443.203	46.54368
443.414	33.89672
443.626	-35.64629
443.837	80.27299
444.048	-27.21824
444.26	-1.93175
444.471	4.39042
444.682	54.97546
444.894	97.13981
445.105	80.27299
445.316	-20.89695
445.528	25.46587
445.739	46.54368
445.95	25.46587
446.161	-44.07393
446.373	46.54368
446.584	-12.46822
446.795	50.75953
447.006	-16.68263
447.217	40.22009
447.429	-1.93175
447.64	57.08346
447.851	57.08346
448.062	-20.89695
448.273	-14.57544
448.484	29.68125
448.695	59.19149
448.907	65.5157
449.118	4.39042
449.329	63.4076
449.54	38.11228
449.751	21.25059
449.962	-60.92802
450.173	-14.57544
450.384	71.84011
450.595	118.22533
450.806	-10.36097
451.017	29.68125
451.228	57.08346
451.439	59.19149
451.65	54.97546
451.861	17.0354
452.072	-44.07393
452.283	-67.24789
452.494	73.9483
452.705	38.11228
452.915	10.7128
453.126	29.68125
453.337	-20.89695
453.548	21.25059
453.759	59.19149
453.97	23.35822
454.181	50.75953
454.391	50.75953
454.602	-58.82135
454.813	19.14299
455.024	67.62381
455.235	46.54368
455.445	4.39042
455.656	6.49786
455.867	-6.14641
456.078	-4.03909
456.288	-16.68263
456.499	76.05651
456.71	90.81458
456.921	38.11228
457.131	29.68125
457.342	80.27299
457.553	25.46587
457.763	-16.68263
457.974	57.08346
458.184	97.13981
458.395	42.32793
458.606	0.17561
458.816	25.46587
459.027	-14.57544
459.237	33.89672
459.448	-37.75323
459.659	6.49786
459.869	46.54368
460.08	-8.2537
460.29	42.32793
460.501	80.27299
460.711	69.73195
460.922	0.17561
461.132	97.13981
461.343	21.25059
461.553	63.4076
461.764	33.89672
461.974	54.97546
462.184	-8.2537
462.395	17.0354
462.605	-10.36097
462.816	6.49786
463.026	139.31302
463.236	65.5157
463.447	50.75953
463.657	21.25059
463.867	61.29953
464.078	-27.21824
464.288	-44.07393
464.498	52.86748
464.709	-12.46822
464.919	31.78897
465.129	76.05651
465.339	29.68125
465.55	63.4076
465.76	25.46587
465.97	-20.89695
466.18	40.22009
466.391	57.08346
466.601	29.68125
466.811	54.97546
467.021	-4.03909
467.231	84.48956
467.441	33.89672
467.651	57.08346
467.862	14.92785
468.072	21.25059
468.282	48.65159
468.492	-8.2537
468.702	44.4358
468.912	-27.21824
469.122	38.11228
469.332	31.78897
469.542	63.4076
469.752	-18.7898
469.962	57.08346
470.172	116.11668
470.382	29.68125
470.592	114.00805
470.802	86.59788
471.012	40.22009
471.222	21.25059
471.432	71.84011
471.642	73.9483
471.852	4.39042
472.062	48.65159
472.272	59.19149
472.482	23.35822
472.691	31.78897
472.901	50.75953
473.111	14.92785
473.321	46.54368
473.531	48.65159
473.741	141.42191
473.95	122.44269
474.16	105.57375
474.37	29.68125
474.58	-33.53931
474.79	116.11668
474.999	17.0354
475.209	105.57375
475.419	63.4076
475.628	46.54368
475.838	82.38126
476.048	46.54368
476.258	48.65159
476.467	76.05651
476.677	88.70622
476.886	52.86748
477.096	97.13981
477.306	80.27299
477.515	124.55141
477.725	173.05775
477.935	137.20416
478.144	69.73195
478.354	82.38126
478.563	160.40285
478.773	109.79086
478.982	132.98649
479.192	78.16474
479.401	154.07568
479.611	78.16474
479.82	86.59788
480.03	25.46587
480.239	69.73195
480.449	80.27299
480.658	141.42191
480.868	135.09531
481.077	135.09531
481.287	141.42191
481.496	173.05775
481.705	158.29377
481.915	156.18471
482.124	164.62107
482.333	164.62107
482.543	114.00805
482.752	141.42191
482.961	162.51195
483.171	173.05775
483.38	215.24608
483.589	185.7134
483.799	162.51195
484.008	198.36978
484.217	137.20416
484.426	124.55141
484.636	99.24826
484.845	255.33235
485.054	101.35674
485.263	198.36978
485.472	173.05775
485.682	223.68471
485.891	151.96666
486.1	251.11241
486.309	160.40285
486.518	265.88252
486.727	198.36978
486.936	177.27622
487.146	213.13647
487.355	249.00247
487.564	286.98428
487.773	289.09456
487.982	242.67277
488.191	240.56291
488.4	261.6624
488.609	265.88252
488.818	267.99262
489.027	329.19331
489.236	350.30049
489.445	358.74385
489.654	362.96564
489.863	274.323
490.072	337.63597
490.281	335.52528
490.49	333.4146
490.698	373.52039
490.907	318.64038
491.116	392.52001
491.325	367.18749
491.534	432.63468
491.743	384.07557
491.952	417.85491
492.16	352.41131
492.369	419.96626
492.578	350.30049
492.787	489.64947
492.996	445.30366
493.204	485.42577
493.413	377.74241
493.622	561.4611
493.831	419.96626
494.039	479.09034
494.248	472.75504
494.457	527.66536
494.665	512.88085
494.874	510.76883
495.083	493.87323
495.291	481.20214
495.5	512.88085
495.709	544.56279
495.917	565.68581
496.126	578.36028
496.335	563.57345
496.543	650.19098
496.752	580.47273
496.96	637.51393
497.169	563.57345
497.377	683.99855
497.586	616.38649
497.794	650.19098
498.003	622.72459
498.211	730.48869
498.42	662.86847
498.628	671.32036
498.837	671.32036
499.045	658.64259
499.254	703.0166
499.462	840.39428
499.671	815.02915
499.879	764.30296
500.087	823.48405
500.296	886.90028
500.504	734.71533
500.713	861.53286
500.921	724.14881
501.129	823.48405
501.338	810.80176
501.546	848.84961
501.754	766.41643
501.962	969.35217
502.171	861.53286
502.379	952.43805
502.587	910.15478
502.795	1013.75377
503.004	984.15239
503.212	1034.89837
503.42	960.89506
503.628	1003.18171
503.837	924.95358
504.045	1195.61413
504.253	1003.18171
504.461	1130.05582
504.669	1060.27265
504.877	1187.15478
505.085	1153.318
505.294	1146.97372
505.502	1070.8455
505.71	1265.40568
505.918	1132.17054
506.126	1187.15478
506.334	1104.6795
506.542	1280.21034
506.75	1144.85897
506.958	1244.25639
507.166	1089.87697
507.374	1284.44026
507.582	1229.45205
507.79	1354.23512
507.998	1199.84382
508.206	1364.81025
508.414	1309.81998
508.622	1500.17322
508.83	1254.831
509.037	1453.64212
509.245	1292.90013
509.453	1553.04909
509.661	1432.4916
509.869	1580.54425
510.077	1373.27037
510.285	1586.88925
510.492	1451.52707
510.7	1553.04909
510.908	1459.98728
511.116	1483.25284
511.324	1527.66875
511.531	1470.56253
511.739	1597.46422
511.947	1567.85421
512.155	1536.12888
512.362	1569.96922
512.57	1694.75133
512.778	1654.56816
512.985	1624.95891
513.193	1597.46422
513.401	1690.52157
513.608	1813.17895
513.816	1720.12963
514.024	1783.57317
514.231	1705.32568
514.439	1859.70055
514.646	1749.73703
514.854	1882.96046
515.061	1688.40669
515.269	1933.70715
515.477	1804.72024
515.684	1821.63759
515.892	1889.30397
516.099	2100.72322
516.307	1967.53645
516.514	2113.4062
516.722	1836.44003
516.929	2159.90808
517.136	1927.36399
517.344	2043.64651
517.551	1956.96496
517.759	2136.65762
517.966	2001.36418
518.173	2142.99875
518.381	1916.79194
518.588	2092.26775
518.796	1971.765
519.003	2261.35279
519.21	2109.17857
519.418	2282.48454
519.625	2085.92606
519.832	2381.79095
520.039	2119.74759
520.247	2297.27621
520.454	2318.40636
520.661	2426.15471
520.868	2142.99875
521.076	2430.37959
521.283	2197.95217
521.49	2354.3254
521.697	2197.95217
521.904	2320.51933
522.112	2347.98695
522.319	2508.53197
522.526	2350.09978
522.733	2635.2321
522.94	2443.05397
523.147	2280.37141
523.354	2531.76351
523.561	2645.78848
523.768	2411.3673
523.975	2593.00351
524.183	2295.16314
524.39	2550.77008
524.597	2624.67541
524.804	2656.34454
525.011	2563.44061
525.218	2820.97703
525.425	2852.62767
525.632	2715.45262
525.838	2550.77008
526.045	2827.30741
526.252	2683.78883
526.459	2958.10659
526.666	2688.01083
526.873	2903.26208
527.08	2823.08717
527.287	2903.26208
527.494	2827.30741
527.701	3185.81175
527.907	2989.7431
528.114	2996.06999
528.321	2953.88814
528.528	3078.30709
528.735	3048.78878
528.941	3223.74448
529.148	2812.53633
529.355	3084.63204
529.562	2941.23242
529.768	3097.28152
529.975	3147.87371
530.182	3131.01067
530.388	3080.41542
530.595	3375.4208
530.802	3158.41258
531.008	3173.16632
531.215	3147.87371
531.422	3362.78452
531.628	3320.65904
531.835	3476.48817
532.042	3510.1681
532.248	3489.11869
532.455	3495.4337
532.661	3613.28361
532.868	3432.27625
533.074	3571.20103
533.281	3425.95961
533.487	3636.42584
533.694	3402.79726
533.9	3621.69923
534.107	3689.01329
534.313	3869.82177
534.52	3554.3659
534.726	3758.41036
534.933	3649.04791
535.139	3754.20508
535.345	3754.20508
535.552	3798.35666
535.758	3604.86769
535.965	3897.14059
536.171	3720.56002
536.377	4014.78265
536.584	3888.73516
536.79	3897.14059
536.996	4067.28072
537.203	3878.22792
537.409	3821.48023
537.615	3813.07194
537.821	3958.07032
538.028	4107.1706
538.234	3974.87552
538.44	4016.88282
538.646	3943.3647
538.853	4002.1812
539.059	3825.68426
539.265	4149.1518
539.471	4094.5746
539.677	4191.12459
539.883	4157.54703
540.09	4272.94715
540.296	4279.23985
540.502	4279.23985
540.708	4241.48077
540.914	4367.31728
541.12	4184.82921
541.326	4423.91829
541.532	4168.0406
541.738	4405.05305
541.944	4327.47744
542.15	4459.54779
542.356	4337.96236
542.562	4618.75462
542.768	4509.83745
542.974	4543.35682
543.18	4528.69279
543.386	4723.42567
543.592	4650.16183
543.798	4694.12345
544.004	4727.61135
544.21	4903.32753
544.415	4438.59002
544.621	4878.23507
544.827	4756.90851
545.033	4777.83234
545.239	4587.34238
545.445	5070.52601
545.651	4853.13931
545.856	4949.32181
546.062	4911.69095
546.268	5116.47966
546.474	4784.10905
546.679	4963.95402
546.885	4679.47068
547.091	5049.63428
547.297	4752.72347
547.502	5149.89345
547.708	4836.40698
547.914	4940.96004
548.119	4949.32181
548.325	5214.6157
548.531	4955.59289
548.736	4968.13444
548.942	5012.02333
549.147	5225.05267
549.353	5091.41543
549.559	5270.96842
549.764	5112.30252
549.97	5183.30127
550.175	5172.86197
550.381	5414.90342
550.586	5170.77404
550.792	5264.70785
550.997	5318.95915
551.203	5366.93749
551.408	5387.79377
551.614	5594.14406
551.819	5414.90342
552.025	5635.80296
552.23	5308.52744
552.435	5537.88959
552.641	5548.30838
552.846	5608.72575
553.052	5477.449
553.257	5744.07193
553.462	5637.88566
553.668	5621.22342
553.873	5575.39448
554.078	5673.2879
554.283	5654.54638
554.489	5798.18248
554.694	5662.87618
554.899	5881.39834
555.105	5781.53478
555.31	5933.38907
555.515	5787.77785
555.72	5854.35732
555.925	5741.99043
556.131	5887.638
556.336	5829.39285
556.541	6022.77867
556.746	5766.9668
556.951	5881.39834
557.156	5829.39285
557.361	6120.43377
557.567	5962.49745
557.772	6128.74245
557.977	6201.42731
558.182	6107.97006
558.387	6128.74245
558.592	6238.7969
558.797	6116.27929
559.002	6159.89662
559.207	5929.23036
559.412	6406.86626
559.617	6120.43377
559.822	6284.46054
560.027	6357.08391
560.232	6562.34979
560.437	6350.86017
560.642	6392.34779
560.847	6413.08811
561.051	6423.4574
561.256	6321.81327
561.461	6338.41206
561.666	6369.53075
561.871	6413.08811
562.076	6286.53589
562.281	6419.30975
562.485	6203.50359
562.69	6294.83706
562.895	6338.41206
563.1	6597.5746
563.305	6396.49604
563.509	6585.14308
563.714	6298.9875
563.919	6868.79009
564.123	6525.04564
564.328	6620.36358
564.533	6618.29197
564.737	6761.17906
564.942	6788.0876
565.147	6736.33698
565.351	6543.69865
565.556	6709.421
565.761	6514.68205
565.965	6846.03135
566.17	6562.34979
566.374	6808.78385
566.579	6709.421
566.784	6903.95727
566.988	6725.98514
567.193	6924.64079
567.397	6901.8888
567.602	7065.2289
567.806	6632.79275
568.011	7048.69452
568.215	7094.16062
568.42	7056.96189
568.624	6870.85893
568.828	6930.84541
569.033	6868.79009
569.237	7284.17488
569.442	7065.2289
569.646	7201.58303
569.85	6922.57254
570.055	7436.87726
570.259	7428.62612
570.463	7319.26575
570.668	7174.73306
570.872	7240.81856
571.076	7077.62874
571.281	7261.46564
571.485	7224.29931
571.689	7203.64826
571.893	7131.35211
572.098	7554.41833
572.302	7346.09567
572.506	7457.50357
572.71	7403.87064
572.914	7445.12804
573.119	7249.07766
573.323	7632.74033
573.527	7593.58318
573.731	7459.56608
573.935	7570.90974
574.139	7795.46972
574.343	7523.49325
574.547	7750.16586
574.751	7486.37677
574.955	7739.86812
575.159	7612.13226
575.364	7616.25405
575.568	7492.56334
575.772	7795.46972
575.976	7630.67962
576.18	7814.0002
576.383	7737.80851
576.587	7807.82356
576.791	7653.34627
576.995	7816.05904
577.199	7618.3149
577.403	7834.58765
577.607	7799.58775
577.811	7832.529
578.015	7752.22535
578.219	8023.8953
578.422	7799.58775
578.626	7980.69906
578.83	7797.52875
579.034	8044.46179
579.238	7781.05596
579.442	7993.04176
579.645	8005.38373
579.849	8149.3195
580.053	7807.82356
580.257	8087.64484
580.46	8256.17974
580.664	8032.12214
580.868	8056.80072
581.071	8330.12866
581.275	8126.70755
581.479	8245.90704
581.682	7962.18363
581.886	8219.19572
582.09	8151.37501
582.293	8588.75265
582.497	8134.93036
582.7	8375.30721
582.904	8104.09318
583.107	8196.59122
583.311	8262.34312
583.515	8441.00475
583.718	8155.48598
583.922	8408.15844
584.125	8412.2645
584.329	8609.26545
584.532	8385.57375
584.735	8666.69135
584.939	8420.47638
585.142	8490.26499
585.346	8412.2645
585.549	8888.05625
585.753	8543.61788
585.956	8920.83311
586.159	8695.39884
586.363	8912.63932
586.566	8832.73488
586.769	8715.90197
586.973	8601.06056
587.176	9060.08431
587.379	8635.92929
587.582	9027.32662
587.786	8769.20152
587.989	8869.61725
588.192	9047.80069
588.395	9148.09864
588.599	8961.7978
588.802	9137.86605
589.005	8916.73625
589.208	9180.84006
589.411	8996.61222
589.615	9015.04133
589.818	8990.46887
590.021	9152.19155
590.224	9154.23799
590.427	9201.30124
590.63	9002.75542
590.833	9195.16307
591.036	9211.53119
591.239	9289.2651
591.442	9043.70602
591.645	9321.98795
591.848	9342.43757
592.051	9399.68778
592.254	9137.86605
592.457	9295.40096
592.66	9274.94751
592.863	9567.27607
593.066	9344.48245
593.269	9653.07267
593.472	9454.88122
593.675	9759.25921
593.878	9424.21966
594.081	9691.87641
594.284	9636.73259
594.486	9759.25921
594.689	9857.24115
594.892	9653.07267
595.095	9738.84193
595.298	9867.44563
595.5	9742.92551
595.703	9736.80012
595.906	9753.13419
596.109	9861.32299
596.311	9832.7489
596.514	9804.17189
596.717	9889.89417
596.92	10142.8292
597.122	9906.21926
597.325	10036.78644
597.528	9904.17867
597.73	10077.57663
597.933	9873.56813
598.136	10022.50853
598.338	9836.83109
598.541	10116.32207
598.743	10114.28297
598.946	9863.36388
599.148	10069.41904
599.351	9779.67497
599.554	9944.98759
599.756	10108.16556
599.959	10053.1032
600.161	10077.57663
600.363	10159.14011
600.566	10187.68207
600.768	10210.106
600.971	10193.79785
601.173	10006.19006
601.376	10371.10247
601.578	10040.86572
601.78	10373.13987
601.983	10163.2177
602.185	10191.75927
602.388	10318.12552
602.59	10338.50233
602.792	10499.43303
602.995	10381.28932
603.197	10169.33398
603.399	10542.19856
603.601	10301.82311
603.804	10403.69924
604.006	10436.29267
604.208	10401.66204
604.41	10483.13992
604.613	10591.06665
604.815	10552.38001
605.017	10835.30146
605.219	10591.06665
605.421	10700.9938
605.623	10676.56862
605.826	10741.69856
606.028	10509.6158
606.23	10497.39643
606.432	10334.42708
606.634	10835.30146
606.836	10666.39095
607.038	10965.49074
607.24	10662.3198
607.442	10778.32876
607.644	10562.56114
607.846	10814.95512
608.048	10810.88571
608.25	10855.64663
608.452	10772.22399
608.654	10741.69856
608.856	10719.31154
609.058	10737.6283
609.26	10731.52282
609.462	10949.21963
609.664	10611.42624
609.866	10959.38916
610.067	10788.50313
610.269	10790.53797
610.471	10672.49759
610.673	10875.99065
610.875	10737.6283
611.077	10792.5728
611.278	10829.19768
611.48	11016.33335
611.682	10884.12794
611.884	11307.0234
612.085	10937.01582
612.287	11063.10245
612.489	10995.99714
612.69	11018.36691
612.892	11130.19588
613.094	11044.80219
613.295	10920.74345
613.497	10993.96346
613.699	11030.56804
613.9	11046.83559
614.102	10932.9478
614.304	11152.55776
614.505	10886.16223
614.707	11024.46752
614.908	10627.71301
615.11	11298.89511
615.311	11142.39343
615.513	11144.42632
615.714	11160.68903
615.916	11087.50142
616.117	10837.33603
616.319	11309.05545
616.52	11128.16292
616.722	11325.31146
616.923	10969.55841
617.124	11209.47313
617.326	10951.25356
617.527	11428.92854
617.729	11367.98044
617.93	11504.08583
618.131	11311.08749
618.333	11264.34807
618.534	11268.41258
618.735	11729.48107
618.937	10937.01582
619.138	11443.1485
619.339	11250.12196
619.54	11412.67658
619.742	11355.78975
619.943	11374.07565
620.144	11225.73316
620.345	11372.04392
620.546	11229.79806
620.748	11520.33434
620.949	11239.96014
621.15	11552.82954
621.351	11284.67022
621.552	11495.96135
621.753	11465.49319
621.954	11540.64412
622.155	11181.01648
622.356	11382.20245
622.558	11321.24752
622.759	11500.02361
622.96	11367.98044
623.161	11652.33135
623.362	11156.62342
623.563	11573.13783
623.764	11288.73452
623.965	11597.50655
624.166	11709.17975
624.366	11479.71194
624.567	11627.96559
624.768	11640.14863
624.969	11550.79866
625.17	11865.47753
625.371	11617.81281
625.572	11674.66549
625.773	11526.42737
625.973	11755.87146
626.174	11709.17975
626.375	11579.23014
626.576	11839.09315
626.777	11751.8115
626.977	11814.73707
627.178	11853.3003
627.379	11573.13783
627.58	11745.72149
627.78	11711.20992
627.981	11688.87756
628.182	11575.16861
628.382	11556.89128
628.583	11814.73707
628.784	11818.7965
628.984	11642.17911
629.185	11940.56386
629.386	11495.96135
629.586	12007.52335
629.787	11936.50542
629.987	11975.05923
630.188	11725.42087
630.388	11952.73896
630.589	11800.52879
630.79	12080.56023
630.99	11798.499
631.191	12082.58889
631.391	11794.4394
631.591	11853.3003
631.792	11786.32009
631.992	12139.38824
632.193	12102.87506
632.393	12037.95661
632.594	11731.51115
632.794	11983.17545
632.994	11954.76812
633.195	12224.57624
633.395	11796.46921
633.595	11966.94288
633.796	11743.69146
633.996	12362.47271
634.196	12179.95558
634.397	12218.49181
634.597	12179.95558
634.797	12226.60437
634.997	11908.09548
635.198	12147.50194
635.398	12169.81402
635.598	11853.3003
635.798	11977.0883
635.998	12396.9418
636.199	11932.44696
636.399	12177.92728
636.599	12267.16541
636.799	12362.47271
636.999	12175.89898
637.199	12163.729
637.399	12017.66797
637.599	12226.60437
637.799	12119.10344
637.999	12461.81953
638.199	12502.36469
638.399	12386.80404
638.599	12301.64005
638.799	12492.22865
638.999	12350.30668
639.199	12569.25859
639.399	12640.19924
639.599	12447.62811
639.799	12153.58715
639.999	12745.58318
640.199	12204.29456
640.399	12480.06518
640.599	11966.94288
640.799	12700.99961
640.998	12698.97302
641.198	12577.36648
641.398	12709.10592
641.598	12863.10854
641.798	12504.39188
641.997	12721.26522
642.197	12431.40895
642.397	12808.40079
642.597	12528.71766
642.796	12638.17247
642.996	12362.47271
643.196	12652.35975
643.395	12364.50036
643.595	12769.90032
643.795	12569.25859
643.994	12688.83996
644.194	12565.20461
644.394	12944.14983
644.593	12840.82068
644.793	13116.3355
644.992	12471.95607
645.192	12802.3219
645.392	12666.54673
645.591	12802.3219
645.791	12650.33301
645.99	12846.89925
646.19	12518.58203
646.389	12784.08494
646.589	12942.1239
646.788	13011.00264
646.987	13027.20856
647.187	12938.07203
647.386	12798.26928
647.586	13023.15711
647.785	12816.50589
647.984	13241.90808
648.184	13027.20856
648.383	13209.50391
648.582	12899.57817
648.782	13124.43749
648.981	13211.52921
649.18	13164.94632
649.38	12901.60421
649.579	13096.08019
649.778	12944.14983
649.977	13221.65561
650.177	12767.87392
650.376	13063.67071
650.575	12921.86432
650.774	13027.20856
650.973	12962.38297
651.173	13144.69213
651.372	13124.43749
651.571	13132.5394
651.77	13233.80714
651.969	13474.78141
652.168	12946.17576
652.367	13468.70712
652.566	13448.45924
652.765	13478.83092
652.964	13108.23343
653.163	13187.22539
653.362	13505.15235
653.561	13320.88859
653.76	13197.35206
653.959	13221.65561
654.158	13104.18237
654.357	13482.88041
654.556	13324.9387
654.755	13642.8238
654.954	13407.96233
655.153	13335.0639
655.352	13422.13643
655.551	13416.06184
655.749	13399.86276
655.948	13624.6035
656.147	13808.819
656.346	13671.16596
656.545	13634.72593
656.743	13448.45924
656.942	13294.56247
657.141	13529.4485
657.34	13440.35998
657.538	13541.59639
657.737	13539.57175
657.936	13606.38293
658.135	13580.06383
658.333	13563.86717
658.532	13505.15235
658.731	13693.43435
658.929	13495.0288
659.128	13191.27607
659.326	13059.61944
659.525	13488.95462
659.724	13482.88041
659.922	13780.47983
660.121	13553.74414
660.319	13472.75665
660.518	13499.07823
660.716	13409.98721
660.915	13529.4485
661.113	13772.38281
661.312	13622.57901
661.51	13861.44739
661.709	13671.16596
661.907	13687.36119
662.105	13531.47316
662.304	13760.2372
662.502	13569.94094
662.701	13849.30255
662.899	13501.10294
663.097	13776.43133
663.296	13328.98879
663.494	13648.89718
663.692	13634.72593
663.891	13654.97052
664.089	13418.08671
664.287	13723.7997
664.485	13565.89176
664.684	14073.96674
664.882	13758.21292
665.08	14049.6802
665.278	13711.65365
665.476	14187.29972
665.675	13622.57901
665.873	13972.77054
666.071	13942.41048
666.269	14314.79174
666.467	13930.26629
666.665	14138.72927
666.863	13661.04384
667.061	13573.99011
667.259	13849.30255
667.457	13841.20593
667.655	13519.32517
667.853	13863.47152
668.051	14053.72798
668.249	13889.78496
668.447	13837.15761
668.645	13794.64949
668.843	13869.5439
669.041	13586.13752
669.239	13484.90515
669.437	13701.53184
669.635	13833.10927
669.833	13691.40996
670.031	13531.47316
670.229	13539.57175
670.426	13521.34984
670.624	13926.2182
670.822	13715.70234
671.02	13910.02576
671.218	13845.25425
671.415	13596.26027
671.613	13569.94094
671.811	13877.64036
672.009	13648.89718
672.206	13930.26629
672.404	13934.31436
672.602	13794.64949
672.799	13727.84836
672.997	14003.13004
673.195	14140.75306
673.392	14073.96674
673.59	13857.39912
673.788	13881.68857
673.985	13772.38281
674.183	13924.19416
674.38	13707.60493
674.578	13780.47983
674.775	13950.50655
674.973	13659.0194
675.17	13920.14606
675.368	13885.73677
675.565	13978.84249
675.763	14144.80064
675.96	13719.75103
676.158	14082.06219
676.355	13715.70234
676.553	14057.77575
676.75	13804.77059
676.947	14411.92381
677.145	13849.30255
677.342	13905.97762
677.539	13503.12765
677.737	14061.82351
677.934	13756.18864
678.131	13940.38645
678.329	13863.47152
678.526	14102.30063
678.723	13752.14007
678.92	14189.32346
679.118	13557.79336
679.315	13857.39912
679.512	13719.75103
679.709	13841.20593
679.906	13764.28575
680.104	13752.14007
680.301	13659.0194
680.498	13711.65365
680.695	13681.288
680.892	14075.99061
681.089	13715.70234
681.286	13606.38293
681.483	13673.19037
681.68	13592.21118
681.877	13618.53001
682.075	13922.17011
682.272	13746.06718
682.469	13962.65058
682.665	13405.93745
682.862	13418.08671
683.059	13458.58323
683.256	13792.62526
683.453	13533.49781
683.65	13543.62102
683.847	13673.19037
684.044	13697.4831
684.241	13434.2855
684.438	13905.97762
684.635	13458.58323
684.831	13800.72216
685.028	13746.06718
685.225	13776.43133
685.422	13531.47316
685.619	13776.43133
685.815	13640.79934
686.012	13669.14154
686.209	13241.90808
686.405	13908.00169
686.602	13229.75665
686.799	13409.98721
686.996	13448.45924
687.192	13409.98721
687.389	13573.99011
687.586	13513.25113
687.782	13620.55451
687.979	13699.50747
688.175	13233.80714
688.372	13598.28481
688.568	13480.85566
688.765	13493.00407
688.962	13407.96233
689.158	13808.819
689.355	13590.18663
689.551	13422.13643
689.748	13035.3114
689.944	13205.45331
690.14	13191.27607
690.337	13744.04288
690.533	13369.48881
690.73	13513.25113
690.926	13578.03926
691.123	13555.76875
691.319	13551.71952
691.515	13490.97935
691.712	13604.3584
691.908	13377.58862
692.104	13164.94632
692.301	13580.06383
692.497	13414.03697
692.693	13772.38281
692.889	13580.06383
693.086	13122.412
693.282	13416.06184
693.478	13444.40962
693.674	13391.76313
693.87	13407.96233
694.067	13472.75665
694.263	13630.67697
694.459	13412.01209
694.655	13525.39918
694.851	13442.3848
695.047	13393.78804
695.243	13254.05935
695.439	13209.50391
695.635	13090.00351
695.831	13083.92678
696.027	13371.51377
696.224	13134.56487
696.42	13393.78804
696.615	13343.16398
696.811	13349.239
697.007	13586.13752
697.203	13051.51684
697.399	13187.22539
697.595	13328.98879
697.791	13229.75665
697.987	13189.25073
698.183	13490.97935
698.379	12992.77061
698.575	13456.55844
698.77	13298.61269
698.966	13239.88285
699.162	13217.60506
699.358	13260.13493
699.554	13326.96375
699.749	13543.62102
699.945	13314.81339
700.141	13333.03887
700.337	13505.15235
700.532	13616.5055
700.728	13428.21098
700.924	13440.35998
701.119	13326.96375
701.315	13183.17469
701.511	12751.66255
701.706	13379.61356
701.902	12893.50002
702.097	13211.52921
702.293	13298.61269
702.489	13367.46385
702.684	13387.71329
702.88	13280.38658
703.075	12952.2535
703.271	13152.79386
703.466	12934.02013
703.662	12986.69317
703.857	13266.21047
704.053	13258.10974
704.248	13375.56367
704.443	13555.76875
704.639	13045.43983
704.834	13409.98721
705.03	12962.38297
705.225	13288.48711
705.42	13106.2079
705.616	13148.74301
705.811	13266.21047
706.006	13126.46297
706.202	13138.61579
706.397	13150.76844
706.592	13053.5425
706.787	13041.38847
706.983	12946.17576
707.178	13401.88766
707.373	13063.67071
707.568	13092.02907
707.763	12784.08494
707.959	13213.5545
708.154	13027.20856
708.349	13055.56815
708.544	13130.51393
708.739	13272.28597
708.934	12723.29175
709.129	12980.61569
709.324	12640.19924
709.519	12990.7448
709.714	12711.13249
709.909	12978.58985
710.104	12891.47396
710.299	13047.46551
710.494	12830.68961
710.689	13156.8447
710.884	12563.17761
711.079	13144.69213
711.274	13035.3114
711.469	13158.87011
711.664	13294.56247
711.859	13223.68088
712.054	13179.12397
712.249	13213.5545
712.443	12986.69317
712.638	12865.13467
712.833	12711.13249
713.028	12818.53216
713.223	12715.1856
713.417	12857.03009
713.612	12936.04608
713.807	13085.95236
714.002	12946.17576
714.196	13219.63034
714.391	12990.7448
714.586	13004.92534
714.78	13011.00264
714.975	12940.09797
715.17	12889.44789
715.364	13294.56247
715.559	12899.57817
715.754	12891.47396
715.948	12763.82111
716.143	12883.36966
716.337	12698.97302
716.532	12873.23916
716.726	12861.08239
716.921	12792.19031
717.115	12792.19031
717.31	13166.97171
717.504	13053.5425
717.699	12909.70832
717.893	12948.20168
718.088	12982.64152
718.282	12956.3053
718.476	12780.03222
718.671	12662.49333
718.865	12859.05625
719.059	12688.83996
719.254	12818.53216
719.448	12413.16188
719.642	12826.63715
719.837	12376.6661
720.031	12850.9516
720.225	12394.91426
720.419	12786.11129
720.614	12384.77647
720.808	12542.90727
721.002	12567.23161
721.196	12573.31255
721.39	12670.6001
721.585	12634.11891
721.779	12784.08494
721.973	12802.3219
722.167	12500.3375
722.361	12672.62677
722.555	12814.47963
722.749	12743.55672
722.943	12628.03852
723.137	12476.01064
723.331	12163.729
723.525	12338.1404
723.719	12267.16541
723.913	12581.42038
724.107	12181.98387
724.301	12492.22865
724.495	12484.11969
724.689	12573.31255
724.883	12236.7449
725.077	12461.81953
725.271	12271.22136
725.465	12250.94134
725.659	12175.89898
725.853	12506.41907
726.046	12325.97386
726.24	12110.98931
726.434	12090.70345
726.628	12419.24429
726.822	12236.7449
727.015	12492.22865
727.209	12281.3611
727.403	12378.69371
727.596	12492.22865
727.79	13063.67071
727.984	12492.22865
728.177	12650.33301
728.371	12626.01171
728.565	12571.28557
728.758	12461.81953
728.952	12555.06955
729.146	12678.70676
729.339	12778.00585
729.533	12500.3375
729.726	12469.92877
729.92	12579.39343
730.113	12609.79703
730.307	12305.69576
730.5	12492.22865
730.694	12419.24429
730.887	12506.41907
731.081	12603.71642
731.274	12684.7867
731.468	12370.58326
731.661	12459.79221
731.854	12246.88525
732.048	12364.50036
732.241	12151.55875
732.435	12232.68871
732.628	12275.27728
732.821	12338.1404
733.014	12200.23814
733.208	11964.91377
733.401	12356.38972
733.594	11981.14641
733.788	12175.89898
733.981	12536.82605
734.174	12358.41739
734.367	12232.68871
734.56	12035.92778
734.754	12214.43549
734.947	12257.02542
735.14	12313.80708
735.333	12388.83161
735.526	12181.98387
735.719	12007.52335
735.912	12204.29456
736.105	12248.9133
736.298	12352.33437
736.491	12261.08144
736.684	12200.23814
736.877	12297.58432
737.07	12447.62811
737.263	12346.25128
737.456	12382.74889
737.649	12313.80708
737.842	12155.61553
738.035	12192.1252
738.228	12086.64619
738.421	12350.30668
738.614	12338.1404
738.807	12502.36469
739	12317.86271
739.192	12070.41683
739.385	12127.21745
739.578	12281.3611
739.771	12354.36205
739.964	12214.43549
740.156	12540.88021
740.349	12141.41667
740.542	12354.36205
740.735	12179.95558
740.927	11940.56386
741.12	11855.32986
741.313	12082.58889
741.505	12145.47353
741.698	12017.66797
741.891	11989.26253
742.083	12096.78929
742.276	12056.21573
742.468	12254.9974
742.661	11678.72612
742.854	11573.13783
743.046	11514.24122
743.239	11514.24122
743.431	12080.56023
743.624	12064.33069
743.816	11847.21157
744.009	12179.95558
744.201	12021.72576
744.393	11867.50704
744.586	12005.4944
744.778	12025.78352
744.971	11749.7815
745.163	12072.44552
745.355	11940.56386
745.548	11812.70734
745.74	12015.63906
745.932	11851.27073
746.125	11761.96134
746.317	11966.94288
746.509	11761.96134
746.702	11865.47753
746.894	11701.05898
747.086	11617.81281
747.278	11830.97459
747.471	11883.74281
747.663	12021.72576
747.855	11981.14641
748.047	11810.6776
748.239	11960.85553
748.431	11873.59552
748.623	12131.27441
748.815	11895.91929
749.008	12070.41683
749.2	11810.6776
749.392	11932.44696
749.584	11550.79866
749.776	12080.56023
749.968	11924.32993
750.16	11912.15414
750.352	11889.83109
750.544	11768.05115
750.736	11676.69581
750.928	11725.42087
751.12	11867.50704
751.311	12009.55229
751.503	12044.04306
751.695	11847.21157
751.887	11625.93505
752.079	12108.96076
752.271	11548.76777
752.463	11709.17975
752.654	11711.20992
752.846	11538.61319
753.038	11595.47588
753.23	11536.58224
753.421	11548.76777
753.613	11558.92213
753.805	11599.53722
753.997	11404.55036
754.188	11400.48719
754.38	11335.47114
754.572	11406.58193
754.763	11506.11693
754.955	11481.74315
755.146	11558.92213
755.338	11548.76777
755.53	11481.74315
755.721	11546.73688
755.913	11573.13783
756.104	11497.99249
756.296	11615.78222
756.487	11514.24122
756.679	11664.51374
756.87	11183.04916
757.062	10989.89606
757.253	11241.99252
757.445	11195.24506
757.636	11233.86293
757.827	11363.91691
758.019	11270.44482
758.21	11380.17077
758.401	11347.66243
758.593	11607.65979
758.784	11605.62916
758.975	11347.66243
759.167	11187.11451
759.358	11382.20245
759.549	11036.66845
759.74	11065.13575
759.932	11178.98378
760.123	11067.16905
760.314	11107.83271
760.505	10843.43967
760.696	10703.02915
760.888	10707.09982
761.079	11030.56804
761.27	10869.88757
761.461	10932.9478
761.652	11103.76654
761.843	11008.199
762.034	10851.57769
762.225	10959.38916
762.416	11089.5346
762.607	10741.69856
762.798	10967.52458
762.989	11174.91836
763.18	11183.04916
763.371	10784.43342
763.562	10839.37059
763.753	10851.57769
763.944	11024.46752
764.135	10924.81161
764.326	10908.53869
764.517	10703.02915
764.708	10816.98981
764.899	10650.10604
765.089	10873.9563
765.28	10483.13992
765.471	10483.13992
765.662	10377.21462
765.853	10578.8503
766.043	10281.4439
766.234	10705.06449
766.425	10690.81685
766.615	10784.43342
766.806	10810.88571
766.997	10593.10267
767.187	10413.88505
767.378	10698.95843
767.569	10477.0298
767.759	10560.52494
767.95	10646.03469
768.141	10601.2466
768.331	10623.64139
768.522	10578.8503
768.712	10550.34374
768.903	10733.55799
769.093	10403.69924
769.284	10483.13992
769.474	10452.58814
769.665	10216.22133
769.855	10148.9459
770.046	10122.43931
770.236	10212.14446
770.426	9987.83068
770.617	10201.95204
770.807	10216.22133
770.998	10403.69924
771.188	10558.48873
771.378	10240.68142
771.569	10267.17765
771.759	10087.77329
771.949	10252.91073
772.139	10336.46471
772.33	10238.64316
772.52	10161.17891
772.71	10358.87781
772.9	10030.66742
773.09	10309.97442
773.281	10389.43857
773.471	9979.67059
773.661	9922.54341
773.851	10020.46877
774.041	9887.85346
774.231	9853.15926
774.421	9732.71645
774.611	9767.4257
774.802	9693.91856
774.992	9632.64741
775.182	9726.59084
775.372	9800.08922
775.562	9793.9651
775.752	9826.6255
775.942	9669.41177
776.131	9771.50885
776.321	9591.7922
776.511	9787.84085
776.701	9577.4914
776.891	9967.43001
777.081	9393.55444
777.271	9612.22059
777.461	9456.9252
777.651	9861.32299
777.84	9555.01715
778.03	9579.53442
778.22	9587.70634
778.41	9644.90275
778.599	9644.90275
778.789	9473.27642
778.979	9936.82627
779.169	9771.50885
779.358	9730.6746
779.548	9912.34092
779.738	9751.09248
779.927	9902.13807
780.117	9669.41177
780.307	9401.73219
780.496	9354.70656
780.686	9546.84423
780.875	9362.88555
781.065	9289.2651
781.254	8955.65355
781.444	9303.58187
781.633	9170.60884
781.823	9285.17444
782.012	9264.72016
782.202	9497.80132
782.391	9174.70138
782.581	9213.57713
782.77	8988.42105
782.96	9379.24275
783.149	9017.08892
783.338	9387.42096
783.528	9191.07086
783.717	9401.73219
783.906	9395.5989
784.096	9354.70656
784.285	9358.79609
784.474	9268.81115
784.663	9289.2651
784.853	9272.90208
785.042	9180.84006
785.231	9209.48524
785.42	9129.67967
785.61	9279.03833
785.799	9055.98984
785.988	8742.5533
786.177	8555.92827
786.366	8924.9299
786.555	8826.58725
786.744	8660.53927
786.933	8990.46887
787.122	9049.84801
787.312	8900.34811
787.501	8937.21984
787.69	8709.75123
787.879	9000.7077
788.068	8687.19707
788.257	8879.86131
788.445	8672.84326
788.634	8918.78469
788.823	8547.72142
789.012	8830.68569
789.201	8584.64987
789.39	8640.03114
789.579	8555.92827
789.768	8834.78406
789.957	8555.92827
790.145	8953.60543
790.334	8910.59083
790.523	8728.20297
790.712	8670.79264
790.9	8533.35871
791.089	8344.50467
791.278	8525.15102
791.467	8250.01618
791.655	8480.00335
791.844	8356.82621
792.033	8186.31566
792.221	7970.41291
792.41	8307.53585
792.599	8104.09318
792.787	8237.68853
792.976	8256.17974
793.164	8307.53585
793.353	8165.76304
793.541	8289.04906
793.73	8060.91353
793.918	8204.81132
794.107	8159.59686
794.295	8490.26499
794.484	8362.98672
794.672	8418.42344
794.861	8239.74319
795.049	8506.68263
795.238	8217.14087
795.426	8420.47638
795.614	7958.06886
795.803	8223.30537
795.991	8143.15285
796.179	8176.0396
796.368	8132.87469
796.556	8225.36017
796.744	8237.68853
796.932	8512.83893
797.121	7900.45353
797.309	8262.34312
797.497	8268.50632
797.685	8346.55831
797.874	8136.98601
798.062	8155.48598
798.25	7844.88059
798.438	8173.98432
798.626	8062.9699
798.814	8042.40524
799.002	8023.8953
799.19	8017.72496
799.378	7820.17665
799.566	8067.08259
799.755	7914.85888
799.943	8060.91353
800.131	7978.64187
800.318	8089.70095
800.506	7968.35562
800.694	7762.52247
800.882	7906.62738
801.07	8206.86629
801.258	8021.83854
801.446	8229.4697
801.634	7754.28482
801.822	8007.44065
802.01	7980.69906
802.197	8021.83854
802.385	7980.69906
802.573	7997.15583
802.761	7914.85888
802.949	8067.08259
803.136	7791.35161
803.324	7999.21283
803.512	8104.09318
803.699	8153.4305
803.887	7960.12626
804.075	8104.09318
804.262	7768.70048
804.45	7939.55141
804.638	8060.91353
804.825	8141.09725
805.013	8056.80072
805.201	8266.45194
805.388	7937.49381
805.576	8023.8953
805.763	7993.04176
805.951	8173.98432
806.138	8001.26982
806.326	8030.06546
806.513	7723.39063
806.701	7925.14779
806.888	7696.61185
807.075	7976.58466
807.263	7649.22525
807.45	7873.69807
807.638	7750.16586
807.825	7836.64628
808.012	7704.85185
808.2	7960.12626
808.387	8124.6518
808.574	8136.98601
808.761	8017.72496
808.949	8134.93036
809.136	7914.85888
809.323	8073.25148
809.51	7997.15583
809.698	7964.24098
809.885	8067.08259
810.072	8330.12866
810.259	8200.70131
810.446	8188.37081
810.633	8081.47638
810.82	8387.627
811.008	8067.08259
811.195	8215.08599
811.382	8416.37048
811.569	8013.6113
811.756	7902.5115
811.943	8015.66814
812.13	7964.24098
812.317	7988.92761
812.504	8139.04164
812.691	8311.64381
812.878	8075.30773
813.064	8225.36017
813.251	8338.34364
813.438	8264.39754
813.625	7914.85888
813.812	8054.74428
813.999	7816.05904
814.186	7958.06886
814.372	7743.98728
814.559	8130.819
814.746	7929.26321
814.933	7886.04718
815.12	7741.92771
815.306	7890.16339
815.493	7894.27951
815.68	8048.57485
815.866	7816.05904
816.053	8067.08259
816.24	7916.9167
816.426	7818.11786
816.613	7799.58775
816.799	7997.15583
816.986	7624.49736
817.173	8005.38373
817.359	7799.58775
817.546	7970.41291
817.732	7762.52247
817.919	7972.47018
818.105	7768.70048
818.292	7822.23543
818.478	7589.46093
818.665	7962.18363
818.851	7931.32089
819.037	7914.85888
819.224	7828.41163
819.41	7879.87272
819.597	7809.88246
819.783	7931.32089
819.969	7762.52247
820.156	7982.75623
820.342	7756.34426
820.528	7865.46492
820.714	7719.27105
820.901	8040.34866
821.087	7830.47033
821.273	7988.92761
821.459	7725.45039
821.646	7962.18363
821.832	7791.35161
822.018	7937.49381
822.204	7346.09567
822.39	7737.80851
822.576	7715.15139
822.762	7686.31136
822.948	7671.8898
823.134	7554.41833
823.32	7403.87064
823.507	7774.87831
823.693	7502.87385
823.879	7638.92233
824.065	7461.62857
824.25	7704.85185
824.436	7638.92233
824.622	7616.25405
824.808	7626.55813
824.994	7608.01039
825.18	7453.37848
825.366	7754.28482
825.552	7350.22302
825.738	7688.3715
825.923	7374.98529
826.109	7783.11513
826.295	7321.32972
826.481	7469.87832
826.667	7566.78701
826.852	7634.80102
827.038	7224.29931
827.224	7548.2337
827.409	7321.32972
827.595	7566.78701
827.781	7319.26575
827.966	7706.9118
828.152	7391.49173
828.338	7298.62483
828.523	7527.61688
828.709	7158.20814
828.894	7432.75173
829.08	7321.32972
829.266	7143.74767
829.451	7430.68894
829.637	6932.91357
829.822	7228.42926
830.008	7139.6159
830.193	7290.36785
830.378	7226.36429
830.564	7172.66752
830.749	7162.3395
830.935	7438.93998
831.12	7238.75373
831.305	7414.18581
831.491	7275.91728
831.676	7315.13774
831.861	7354.35028
832.047	7327.5215
832.232	6879.13406
832.417	7032.1587
832.602	7015.62145
832.788	7123.08796
832.973	6974.27202
833.158	7040.42679
833.343	6781.87828
833.528	7257.3364
833.714	6843.96224
833.899	6994.94786
834.084	6850.16951
834.269	7059.02867
834.454	6649.36369
834.639	6963.93325
834.824	6728.05555
835.009	6866.72123
835.194	6748.75843
835.379	6926.70902
835.564	6663.86205
835.749	6850.16951
835.934	6750.82859
836.119	6779.80846
836.304	6759.10901
836.489	6696.99694
836.674	6601.71826
836.859	6759.10901
837.044	6647.2924
837.228	6843.96224
837.413	6516.75481
837.598	6792.22703
837.783	6730.12594
837.968	6955.66183
838.152	6593.43086
838.337	6576.85493
838.522	6394.42193
838.707	6817.06171
838.891	6371.60515
839.076	6817.06171
839.261	6454.56176
839.445	6612.077
839.63	6512.60926
839.815	6614.14868
839.999	6355.00935
840.184	6537.48119
840.368	6381.97676
840.553	6460.78201
840.737	6211.80851
840.922	6184.81616
841.106	6448.34131
841.291	6444.19422
841.475	6089.2729
841.66	6541.62619
841.844	6080.96244
842.029	6267.85689
842.213	6083.04009
842.397	6352.93477
842.582	5987.44381
842.766	6446.26778
842.951	5985.36507
843.135	6029.01353
843.319	5873.07845
843.504	6099.66044
843.688	5781.53478
843.872	5977.0499
844.056	5908.43536
844.241	6178.58659
844.425	5887.638
844.609	6066.41822
844.793	5999.91571
844.977	5960.41843
845.161	5787.77785
845.346	5904.27608
845.53	5787.77785
845.714	5916.75364
845.898	5573.31108
846.082	6118.35654
846.266	5812.74798
846.45	6269.93243
846.634	5947.94384
846.818	5891.79766
847.002	5821.07061
847.186	5891.79766
847.37	5947.94384
847.554	5906.35573
847.738	5931.30973
847.922	5970.81328
848.106	5987.44381
848.29	6004.07283
848.473	5498.29282
848.657	5812.74798
848.841	5621.22342
849.025	5725.33763
849.209	5681.61685
849.392	5719.09245
849.576	5583.72786
849.76	5748.23485
849.944	5350.25078
850.127	5623.30628
850.311	5450.34851
850.495	5573.31108
850.678	5498.29282
850.862	5831.47336
851.046	5525.38627
851.229	5544.14094
851.413	5573.31108
851.596	5529.55413
851.78	5583.72786
851.964	5694.10956
852.147	5531.63803
852.331	5671.2056
852.514	5460.77225
852.698	5356.50847
852.881	5070.52601
853.065	5293.92206
853.248	4966.04424
853.431	5003.66432
853.615	5016.20269
853.798	5158.24596
853.982	5162.42208
854.165	5273.05523
854.348	5200.00295
854.532	5427.41423
854.715	5329.39028
854.898	5227.13999
855.081	4995.30495
855.265	5429.49928
855.448	5346.07887
855.631	5270.96842
855.814	5122.7452
855.997	4761.09346
856.181	4945.14097
856.364	5070.52601
856.547	5020.38196
856.73	5166.5981
856.913	4926.32606
857.096	5181.21346
857.279	5016.20269
857.462	5064.25873
857.645	4813.39764
857.828	4982.7652
858.011	4855.23075
858.194	5074.70408
858.377	4687.84382
858.56	4752.72347
858.743	4612.47258
858.926	4869.87018
859.109	4712.9611
859.292	4917.96328
859.475	4648.06818
859.658	5097.6818
859.841	4823.85678
860.023	4920.05401
860.206	4511.93257
860.389	4756.90851
860.572	4530.78772
860.755	4779.9246
860.937	4719.23991
861.12	4614.56661
861.303	4497.26622
861.486	4660.62978
861.668	4520.31286
861.851	4706.68209
862.034	4235.18692
862.216	4417.63007
862.399	4201.61647
862.581	4409.24548
862.764	4245.67657
862.947	4625.03647
863.129	4488.88497
863.312	4723.42567
863.494	4388.28246
863.677	4553.83046
863.859	4453.26069
864.042	4551.73578
864.224	4195.32141
864.406	4314.89482
864.589	4090.37577
864.771	4459.54779
864.954	4161.74452
865.136	4333.76846
865.318	4218.40238
865.501	4377.80014
865.683	4069.38037
865.865	4430.2063
866.048	4417.63007
866.23	4344.25306
866.412	4212.10782
866.594	4300.21411
866.777	4243.57868
866.959	4405.05305
867.141	4126.06317
867.323	4193.22301
867.505	4149.1518
867.687	3993.77982
867.869	4010.58225
868.052	3997.98055
868.234	3796.2544
868.416	4065.18104
868.598	3789.9475
868.78	3821.48023
868.962	3834.09208
869.144	4105.07132
869.326	3815.17404
869.508	3939.16291
869.69	3800.4589
869.872	4018.98297
870.054	4016.88282
870.236	4107.1706
870.417	3808.86767
870.599	3989.57901
870.781	3749.99972
870.963	3907.64693
871.145	3911.84932
871.327	3909.74813
871.508	3764.71814
871.69	4195.32141
871.872	3909.74813
872.054	4144.95406
872.235	3892.93792
872.417	4004.28149
872.599	3749.99972
872.78	4121.86497
872.962	3783.64043
873.144	3842.49958
873.325	3789.9475
873.507	3884.53232
873.689	3806.76551
873.87	4243.57868
874.052	3813.07194
874.233	4054.68236
874.415	3619.59536
874.596	3741.58876
874.778	3379.63276
874.959	3533.32034
875.141	3552.26143
875.322	3728.97175
875.503	3701.6325
875.685	3846.70321
875.866	3758.41036
876.048	3939.16291
876.229	3707.94184
876.41	3806.76551
876.592	3613.28361
876.773	3882.43088
876.954	3548.05243
877.136	3762.61557
877.317	3539.6342
877.498	3754.20508
877.679	3337.51006
877.86	3621.69923
878.042	3771.02575
878.223	3775.23072
878.404	3712.14798
878.585	3710.04492
878.766	3707.94184
878.947	3958.07032
879.128	3693.21977
879.309	3670.08318
879.49	3722.66298
879.672	3741.58876
879.853	3594.34737
880.034	3804.66333
880.215	3487.01365
880.396	3844.60141
880.576	3569.0967
880.757	3754.20508
880.938	3617.49146
881.119	3947.56641
881.3	3554.3659
881.481	4031.58343
881.662	3911.84932
881.843	4312.79764
882.023	4004.28149
882.204	3913.95049
882.385	3628.01075
882.566	3897.14059
882.747	3855.11024
882.927	3976.97608
883.108	3831.99015
883.289	3897.14059
883.469	3695.32298
883.65	3792.04982
883.831	3876.12641
884.011	3955.96958
884.192	3823.58225
884.373	4035.78342
884.553	3789.9475
884.734	3968.57372
884.914	3787.84516
885.095	3983.27764
885.275	3691.11654
885.456	4029.48341
885.636	3939.16291
885.817	3983.27764
885.997	3934.96104
886.178	4107.1706
886.358	3991.67942
886.538	3783.64043
886.719	3632.21833
886.899	3939.16291
887.08	3924.45602
887.26	3993.77982
887.44	3844.60141
887.621	3897.14059
887.801	3712.14798
887.981	3972.77494
888.161	3909.74813
888.342	3855.11024
888.522	3735.28034
888.702	3773.12824
888.882	3739.48598
889.062	3888.73516
889.242	3724.76592
889.423	3934.96104
889.603	3798.35666
889.783	3972.77494
889.963	3653.25512
890.143	4075.67921
890.323	3888.73516
890.503	4086.17686
890.683	3796.2544
890.863	3718.45704
891.043	3871.92334
891.223	3871.92334
891.403	3434.38176
891.583	3930.75909
891.763	3552.26143
891.943	3922.35495
892.122	3657.46225
892.302	3913.95049
892.482	3798.35666
892.662	3897.14059
892.842	3829.88821
893.022	3913.95049
893.201	3792.04982
893.381	3981.17714
893.561	3678.49675
893.741	3945.46556
893.92	3628.01075
894.1	3653.25512
894.28	3621.69923
894.459	3621.69923
894.639	3409.11448
894.819	3653.25512
894.998	3501.74855
895.178	3564.88799
895.357	3411.22018
895.537	3493.32872
895.716	3527.00631
895.896	3745.79428
896.075	3447.01444
896.255	3686.91002
896.434	3529.11101
896.614	3646.94428
896.793	3383.84464
896.973	3425.95961
897.152	3299.59371
897.331	3527.00631
897.511	3428.06518
897.69	3699.52934
897.87	3495.4337
898.049	3428.06518
898.228	3333.29741
898.407	3495.4337
898.587	3362.78452
898.766	3360.67841
898.945	3149.98151
899.124	3282.74022
899.304	2953.88814
899.483	3350.1476
899.662	3101.49789
899.841	3335.40374
900.02	2939.12308
900.199	3149.98151
900.378	3029.81112
900.557	3097.28152
900.737	2873.72634
900.916	3046.68022
901.095	2854.7376
901.274	2964.43416
901.453	2793.54394
901.632	2873.72634
901.811	2911.70034
901.989	2863.17719
902.168	2949.66962
902.347	2848.40777
902.526	2787.2129
902.705	2928.57616
902.884	2768.21903
903.063	2932.79497
903.242	2582.4456
903.42	2947.56034
903.599	2685.89984
903.778	2852.62767
903.957	2637.3434
904.135	2880.05567
904.314	2624.67541
904.493	2738.67086
904.672	2392.35417
904.85	2590.89195
905.029	2489.52333
905.207	2609.89553
905.386	2426.15471
905.565	2626.78678
905.743	2271.91878
905.922	2436.71683
906.1	2185.27111
906.279	2455.72795
906.457	2297.27621
906.636	2373.34019
906.814	2299.38927
906.993	2413.47982
907.171	2303.61536
907.35	2377.56559
907.528	2149.33981
907.707	2286.71078
907.885	1992.9074
908.063	2092.26775
908.242	2047.87459
908.42	2204.29258
908.598	1992.9074
908.777	2043.64651
908.955	2016.1633
909.133	2202.17912
909.311	1923.13518
909.49	2066.90062
909.668	1775.11423
909.846	2054.21666
910.024	1946.39331
910.202	2090.15386
910.38	1973.87927
910.559	2155.6808
910.737	1842.78387
910.915	2119.74759
911.093	2009.82086
911.271	2170.47615
911.449	1783.57317
911.627	2223.31337
911.805	1946.39331
911.983	2130.31642
912.161	1925.24959
912.339	2155.6808
912.517	2037.30433
912.695	2206.40604
912.872	2016.1633
913.05	2345.87412
913.228	2195.83868
913.406	2255.01309
913.584	2126.08891
913.762	2282.48454
913.939	2246.56003
914.117	2238.10682
914.295	2007.7067
914.473	2238.10682
914.65	2045.76055
914.828	2170.47615
915.006	1933.70715
915.184	1978.10779
915.361	1758.19616
915.539	2083.81215
915.716	1851.24224
915.894	2043.64651
916.072	1796.26147
916.249	1918.90636
916.427	1874.50238
916.604	2178.93046
916.782	1914.67751
916.959	1948.50765
917.137	1732.8186
917.314	1772.99949
917.492	1635.53369
917.669	1878.73143
917.847	1595.34923
918.024	1732.8186
918.201	1808.94961
918.379	1855.4714
918.556	1538.24391
918.733	1863.92967
918.911	1536.12888
919.088	1737.04823
919.265	1498.05817
919.442	1777.22897
919.62	1595.34923
919.797	1775.11423
919.974	1578.42925
920.151	1711.67025
920.328	1720.12963
920.506	1698.98108
920.683	1586.88925
920.86	1559.39415
921.037	1354.23512
921.214	1572.08423
921.391	1580.54425
921.568	1715.89994
921.745	1656.68309
921.922	1770.88474
922.099	1523.43867
922.276	1737.04823
922.453	1508.63339
922.63	1572.08423
922.807	1500.17322
922.984	1388.07562
923.161	1341.54501
923.338	1385.96058
923.514	1246.3713
923.691	1449.41201
923.868	1394.42075
924.045	1440.9518
924.222	1290.78516
924.399	1468.44748
924.575	1153.318
924.752	1390.19066
924.929	1305.59001
925.105	1453.64212
925.282	1339.42999
925.459	1390.19066
925.635	1273.86547
925.812	1352.1201
925.989	1364.81025
926.165	1263.29074
926.342	1159.66232
926.518	1231.56694
926.695	1191.38445
926.871	1172.35107
927.048	1089.87697
927.224	1216.76273
927.401	984.15239
927.577	1157.54755
927.754	1034.89837
927.93	1178.6955
928.107	1072.96009
928.283	1089.87697
928.459	1053.929
928.636	1172.35107
928.812	1007.41052
928.988	1106.79417
929.165	992.6098
929.341	1121.59697
929.517	924.95358
929.693	1049.69993
929.87	908.04069
930.046	1017.98265
930.222	772.75693
930.398	1094.10624
930.574	908.04069
930.751	1017.98265
930.927	810.80176
931.103	975.69508
931.279	848.84961
931.455	878.44434
931.631	831.93909
931.807	1047.58541
931.983	867.8746
932.159	857.30507
932.335	679.77244
932.511	827.71155
932.687	662.86847
932.863	804.46074
933.039	690.3378
933.215	669.20737
933.391	599.48543
933.566	673.43336
933.742	529.77749
933.918	806.5744
934.094	521.32906
934.27	612.16115
934.445	578.36028
934.621	555.12413
934.797	476.97856
934.973	498.09704
935.148	538.22615
935.324	508.65683
935.5	428.41181
935.675	432.63468
935.851	443.19213
936.027	495.98513
936.202	384.07557
936.378	384.07557
936.553	335.52528
936.729	445.30366
936.904	331.30395
937.08	362.96564
937.255	327.08269
937.431	358.74385
937.606	234.23344
937.782	286.98428
937.957	249.00247
938.133	265.88252
938.308	276.43317
938.483	147.7487
938.659	189.93211
938.834	211.02688
939.009	206.80777
939.185	234.23344
939.36	217.35571
939.535	265.88252
939.71	185.7134
939.886	183.60407
940.061	154.07568
940.236	282.76378
940.411	92.92297
940.586	143.53082
940.761	170.94855
940.937	151.96666
941.112	141.42191
941.287	99.24826
941.462	61.29953
941.637	194.1509
941.812	97.13981
941.987	130.87769
942.162	135.09531
942.337	194.1509
942.512	166.73021
942.687	86.59788
942.862	124.55141
943.037	162.51195
943.212	147.7487
943.386	132.98649
943.561	114.00805
943.736	206.80777
943.911	33.89672
944.086	59.19149
944.26	116.11668
944.435	99.24826
944.61	139.31302
944.785	57.08346
944.959	84.48956
945.134	101.35674
945.309	101.35674
945.483	130.87769
945.658	105.57375
945.833	105.57375
946.007	63.4076
946.182	40.22009
946.357	105.57375
946.531	107.68229
946.706	59.19149
946.88	118.22533
947.055	61.29953
947.229	147.7487
947.404	147.7487
947.578	84.48956
947.752	97.13981
947.927	50.75953
948.101	137.20416
948.276	90.81458
948.45	141.42191
948.624	86.59788
948.799	114.00805
948.973	147.7487
949.147	116.11668
949.321	139.31302
949.496	147.7487
949.67	97.13981
949.844	141.42191
950.018	109.79086
950.193	107.68229
950.367	109.79086
950.541	97.13981
950.715	175.16697
950.889	78.16474
951.063	90.81458
951.237	71.84011
951.411	126.66015
951.585	173.05775
951.759	139.31302
951.933	105.57375
952.107	194.1509
952.281	80.27299
952.455	151.96666
952.629	95.03138
952.803	160.40285
952.977	82.38126
953.151	80.27299
953.325	181.49477
953.499	114.00805
953.672	160.40285
953.846	158.29377
954.02	114.00805
954.194	107.68229
954.368	80.27299
954.541	52.86748
954.715	71.84011
954.889	63.4076
955.062	126.66015
955.236	130.87769
955.41	141.42191
955.583	109.79086
955.757	135.09531
955.93	48.65159
956.104	82.38126
956.278	71.84011
956.451	99.24826
956.625	105.57375
956.798	99.24826
956.972	132.98649
957.145	116.11668
957.319	97.13981
957.492	126.66015
957.665	189.93211
957.839	149.85767
958.012	90.81458
958.185	103.46523
958.359	124.55141
958.532	107.68229
958.705	130.87769
958.879	107.68229
959.052	181.49477
959.225	59.19149
959.398	97.13981
959.572	156.18471
959.745	187.82274
959.918	189.93211
960.091	147.7487
960.264	92.92297
960.438	80.27299
960.611	80.27299
960.784	107.68229
960.957	149.85767
961.13	40.22009
961.303	114.00805
961.476	160.40285
961.649	63.4076
961.822	105.57375
961.995	130.87769
962.168	154.07568
962.341	73.9483
962.514	164.62107
962.686	90.81458
962.859	158.29377
963.032	181.49477
963.205	145.63975
963.378	116.11668
963.551	156.18471
963.723	48.65159
963.896	99.24826
964.069	107.68229
964.242	105.57375
964.414	63.4076
964.587	80.27299
964.76	97.13981
964.932	82.38126
965.105	107.68229
965.278	61.29953
965.45	135.09531
965.623	46.54368
965.795	128.76891
965.968	130.87769
966.14	164.62107
966.313	99.24826
966.485	88.70622
966.658	130.87769
966.83	59.19149
967.003	-58.82135
967.175	105.57375
967.348	160.40285
967.52	105.57375
967.692	164.62107
967.865	105.57375
968.037	25.46587
968.209	73.9483
968.382	97.13981
968.554	132.98649
968.726	124.55141
968.898	88.70622
969.071	105.57375
969.243	57.08346
969.415	57.08346
969.587	95.03138
969.759	90.81458
969.932	139.31302
970.104	73.9483
970.276	71.84011
970.448	135.09531
970.62	38.11228
970.792	42.32793
970.964	97.13981
971.136	71.84011
971.308	122.44269
971.48	42.32793
971.652	14.92785
971.824	46.54368
971.996	151.96666
972.168	65.5157
972.339	21.25059
972.511	71.84011
972.683	78.16474
972.855	63.4076
973.027	95.03138
973.199	122.44269
973.37	54.97546
973.542	97.13981
973.714	46.54368
973.886	88.70622
974.057	57.08346
974.229	109.79086
974.401	36.00449
974.572	57.08346
974.744	65.5157
974.915	48.65159
975.087	29.68125
975.259	76.05651
975.43	76.05651
975.602	10.7128
975.773	0.17561
975.945	27.57355
976.116	82.38126
976.288	57.08346
976.459	71.84011
976.63	76.05651
976.802	80.27299
976.973	124.55141
977.145	31.78897
977.316	99.24826
977.487	38.11228
977.659	67.62381
977.83	73.9483
978.001	46.54368
978.172	95.03138
978.344	-20.89695
978.515	80.27299
978.686	46.54368
978.857	124.55141
979.028	88.70622
979.2	69.73195
979.371	63.4076
979.542	92.92297
979.713	76.05651
979.884	59.19149
980.055	105.57375
980.226	38.11228
980.397	42.32793
980.568	97.13981
980.739	29.68125
980.91	99.24826
981.081	33.89672
981.252	80.27299
981.423	99.24826
981.594	57.08346
981.765	88.70622
981.936	25.46587
982.106	4.39042
982.277	-4.03909
982.448	17.0354
982.619	31.78897
982.79	31.78897
982.96	38.11228
983.131	50.75953
983.302	2.283
983.472	38.11228
983.643	42.32793
983.814	42.32793
983.984	38.11228
984.155	44.4358
984.326	73.9483
984.496	25.46587
984.667	84.48956
984.837	12.82031
985.008	116.11668
985.178	33.89672
985.349	-18.7898
985.519	90.81458
985.69	-6.14641
985.86	40.22009
986.031	175.16697
986.201	0.17561
986.371	44.4358
986.542	97.13981
986.712	27.57355
986.882	149.85767
987.053	4.39042
987.223	54.97546
987.393	-18.7898
987.563	76.05651
987.734	23.35822
987.904	25.46587
988.074	21.25059
988.244	33.89672
988.414	54.97546
988.585	54.97546
988.755	80.27299
988.925	14.92785
989.095	57.08346
989.265	97.13981
989.435	8.60532
989.605	73.9483
989.775	-67.24789
989.945	88.70622
990.115	-37.75323
990.285	31.78897
990.455	23.35822
990.625	-4.03909
990.795	-35.64629
990.965	65.5157
991.134	42.32793
991.304	46.54368
991.474	0.17561
991.644	63.4076
991.814	71.84011
991.984	21.25059
992.153	71.84011
992.323	107.68229
992.493	0.17561
992.662	69.73195
992.832	29.68125
993.002	-20.89695
993.171	52.86748
993.341	54.97546
993.511	48.65159
993.68	84.48956
993.85	86.59788
994.019	12.82031
994.189	88.70622
994.358	-14.57544
994.528	27.57355
994.697	29.68125
994.867	40.22009
995.036	71.84011
995.206	80.27299
995.375	57.08346
995.544	38.11228
995.714	46.54368
995.883	-12.46822
996.052	44.4358
996.222	54.97546
996.391	33.89672
996.56	-60.92802
996.73	-37.75323
996.899	8.60532
997.068	36.00449
997.237	23.35822
997.406	29.68125
997.576	116.11668
997.745	33.89672
997.914	0.17561
998.083	23.35822
998.252	-12.46822
998.421	-16.68263
998.59	84.48956
998.759	54.97546
998.928	40.22009
999.097	0.17561
999.266	92.92297
999.435	19.14299
999.604	69.73195
999.773	78.16474
999.942	38.11228
1000.111	61.29953
1000.28	4.39042
1000.448	52.86748
1000.617	19.14299
1000.786	17.0354
1000.955	59.19149
1001.124	38.11228
1001.292	33.89672
1001.461	23.35822
1001.63	31.78897
1001.798	12.82031
1001.967	-20.89695
1002.136	6.49786
1002.304	65.5157
1002.473	2.283
1002.642	38.11228
1002.81	6.49786
1002.979	71.84011
1003.147	29.68125
1003.316	71.84011
1003.484	54.97546
1003.653	2.283
1003.821	-14.57544
1003.99	6.49786
1004.158	38.11228
1004.327	114.00805
1004.495	54.97546
1004.663	21.25059
1004.832	-46.18078
1005	80.27299
1005.168	-16.68263
1005.337	19.14299
1005.505	44.4358
1005.673	71.84011
1005.842	31.78897
1006.01	73.9483
1006.178	23.35822
1006.346	76.05651
1006.514	80.27299
1006.683	-10.36097
1006.851	78.16474
1007.019	6.49786
1007.187	38.11228
1007.355	-6.14641
1007.523	-1.93175
1007.691	-44.07393
1007.859	-8.2537
1008.027	-4.03909
1008.195	-29.32529
1008.363	63.4076
1008.531	33.89672
1008.699	-4.03909
1008.867	14.92785
1009.035	46.54368
1009.203	12.82031
1009.37	-35.64629
1009.538	48.65159
1009.706	48.65159
1009.874	57.08346
1010.042	67.62381
1010.209	40.22009
1010.377	80.27299
1010.545	4.39042
1010.713	6.49786
1010.88	92.92297
1011.048	29.68125
1011.216	-18.7898
1011.383	-4.03909
1011.551	-35.64629
1011.718	52.86748
1011.886	12.82031
1012.054	54.97546
1012.221	50.75953
1012.389	-39.86016
1012.556	-29.32529
1012.724	38.11228
1012.891	38.11228
1013.058	4.39042
1013.226	-33.53931
1013.393	-4.03909
1013.561	-37.75323
1013.728	80.27299
1013.895	27.57355
1014.063	-8.2537
1014.23	-8.2537
1014.397	4.39042
1014.565	52.86748
1014.732	-4.03909
1014.899	80.27299
1015.066	-18.7898
1015.233	42.32793
1015.401	80.27299
1015.568	40.22009
1015.735	52.86748
1015.902	50.75953
1016.069	8.60532
1016.236	-12.46822
1016.403	99.24826
1016.57	8.60532
1016.737	14.92785
1016.904	54.97546
1017.071	-20.89695
1017.238	0.17561
1017.405	-29.32529
1017.572	42.32793
1017.739	8.60532
1017.906	63.4076
1018.073	46.54368
1018.24	63.4076
1018.407	63.4076
1018.573	-1.93175
1018.74	-12.46822
1018.907	-20.89695
1019.074	0.17561
1019.241	-39.86016
1019.407	0.17561
1019.574	25.46587
1019.741	46.54368
1019.907	-4.03909
1020.074	92.92297
1020.241	0.17561
1020.407	88.70622
1020.574	23.35822
1020.74	23.35822
1020.907	8.60532
1021.073	31.78897
1021.24	12.82031
1021.406	25.46587
1021.573	57.08346
1021.739	12.82031
1021.906	27.57355
1022.072	21.25059
1022.239	21.25059
1022.405	-46.18078
1022.571	0.17561
1022.738	-25.11117
1022.904	12.82031
1023.07	46.54368
1023.237	54.97546
1023.403	-71.461
1023.569	-71.461
1023.735	6.49786
1023.902	54.97546
1024.068	21.25059
1024.234	67.62381
1024.4	6.49786
1024.566	-10.36097
1024.732	40.22009
1024.898	21.25059
1025.065	8.60532
1025.231	6.49786
1025.397	46.54368
1025.563	-1.93175
1025.729	63.4076
1025.895	-39.86016
1026.061	42.32793
1026.227	-33.53931
1026.392	-20.89695
1026.558	19.14299
1026.724	-29.32529
1026.89	-23.00407
1027.056	44.4358
1027.222	-58.82135
1027.388	73.9483
1027.553	-16.68263
1027.719	-1.93175
1027.885	-6.14641
1028.051	21.25059
1028.216	2.283
1028.382	38.11228
1028.548	-33.53931
1028.713	63.4076
1028.879	-35.64629
1029.045	-52.50118
1029.21	23.35822
1029.376	-16.68263
1029.541	31.78897
1029.707	14.92785
1029.873	31.78897
1030.038	48.65159
1030.204	6.49786
1030.369	-29.32529
1030.534	-27.21824
1030.7	46.54368
1030.865	-25.11117
1031.031	38.11228
1031.196	69.73195
1031.361	-4.03909
1031.527	8.60532
1031.692	38.11228
1031.857	-25.11117
1032.023	29.68125
1032.188	17.0354
1032.353	73.9483
1032.518	-8.2537
1032.684	42.32793
1032.849	17.0354
1033.014	-12.46822
1033.179	29.68125
1033.344	4.39042
1033.509	-8.2537
1033.674	14.92785
1033.839	-20.89695
1034.004	12.82031
1034.17	-63.03467
1034.335	109.79086
1034.5	-8.2537
1034.664	-29.32529
1034.829	21.25059
1034.994	21.25059
1035.159	33.89672
1035.324	-41.96706
1035.489	14.92785
1035.654	31.78897
1035.819	-6.14641
1035.984	6.49786
1036.148	25.46587
1036.313	10.7128
1036.478	-25.11117
1036.643	10.7128
1036.807	2.283
1036.972	120.334
1037.137	-8.2537
1037.301	-14.57544
1037.466	12.82031
1037.631	42.32793
1037.795	-46.18078
1037.96	0.17561
1038.124	-37.75323
1038.289	63.4076
1038.454	4.39042
1038.618	31.78897
1038.783	6.49786
1038.947	42.32793
1039.111	-20.89695
1039.276	21.25059
1039.44	33.89672
1039.605	6.49786
1039.769	-35.64629
1039.933	14.92785
1040.098	57.08346
1040.262	14.92785
1040.426	12.82031
1040.591	50.75953
1040.755	38.11228
1040.919	23.35822
1041.083	48.65159
1041.248	63.4076
1041.412	57.08346
1041.576	97.13981
1041.74	-12.46822
1041.904	14.92785
1042.068	12.82031
1042.232	61.29953
1042.397	31.78897
1042.561	4.39042
1042.725	-14.57544
1042.889	-8.2537
1043.053	-20.89695
1043.217	-29.32529
1043.381	-20.89695
1043.544	-35.64629
1043.708	46.54368
1043.872	88.70622
1044.036	-16.68263
1044.2	12.82031
1044.364	50.75953
1044.528	-27.21824
1044.691	-14.57544
1044.855	71.84011
1045.019	-54.60793
1045.183	-12.46822
1045.346	21.25059
1045.51	-12.46822
1045.674	-46.18078
1045.837	-8.2537
1046.001	38.11228
1046.165	12.82031
1046.328	-4.03909
1046.492	90.81458
1046.655	-1.93175
1046.819	-44.07393
1046.983	6.49786
1047.146	80.27299
1047.31	48.65159
1047.473	33.89672
1047.636	-20.89695
1047.8	-46.18078
1047.963	4.39042
1048.127	-10.36097
1048.29	63.4076
