Data from mixed_try1_USB4F045381__39__00061.txt Node

Date: Thu Apr 03 19:38:34 EDT 2025
User: mmckonesweet
Spectrometer: USB4F04538
Trigger mode: 4
Integration Time (sec): 2.700000E-3
Scans to average: 1
Electric dark correction enabled: true
Nonlinearity correction enabled: true
Boxcar width: 0
XAxis mode: Wavelengths
Number of Pixels in Spectrum: 3648
>>>>>Begin Spectral Data<<<<<
345.52	16.15725
345.736	16.15725
345.952	16.15725
346.168	-59.69913
346.384	-25.98912
346.6	33.01848
346.816	-44.95179
347.032	-21.77492
347.248	3.51233
347.464	-0.70246
347.68	7.72721
347.896	-0.70246
348.112	60.42118
348.328	33.01848
348.544	-47.05863
348.76	-0.70246
348.975	-21.77492
349.191	-17.56062
349.407	-9.13173
349.623	-0.70246
349.839	-7.02445
350.055	-59.69913
350.27	11.94218
350.486	18.26482
350.702	7.72721
350.918	-51.27223
351.133	-17.56062
351.349	-42.84492
351.565	9.83468
351.781	-38.63112
351.996	18.26482
352.212	-25.98912
352.428	14.04971
352.644	41.44967
352.859	18.26482
353.075	-7.02445
353.291	-28.09618
353.506	-76.55171
353.722	20.37242
353.938	-9.13173
354.153	11.94218
354.369	-17.56062
354.584	-53.37899
354.8	-23.88203
355.016	18.26482
355.231	-9.13173
355.447	-9.13173
355.662	41.44967
355.878	73.06989
356.093	-25.98912
356.309	-0.70246
356.524	-118.67593
356.74	-0.70246
356.955	9.83468
357.171	11.94218
357.386	-93.40265
357.602	-7.02445
357.817	-30.20322
358.033	9.83468
358.248	11.94218
358.464	-32.31023
358.679	11.94218
358.895	35.12624
359.11	66.74543
359.325	33.01848
359.541	58.31314
359.756	35.12624
359.972	1.40492
360.187	-13.34623
360.402	-49.16544
360.618	-7.02445
360.833	37.23403
361.048	-19.66778
361.264	41.44967
361.479	-0.70246
361.694	-4.91714
361.909	-55.48573
362.125	16.15725
362.34	-40.73804
362.555	-42.84492
362.77	11.94218
362.986	28.80304
363.201	16.15725
363.416	3.51233
363.631	-42.84492
363.847	-51.27223
364.062	-9.13173
364.277	-7.02445
364.492	-55.48573
364.707	-38.63112
364.922	-25.98912
365.138	18.26482
365.353	-34.41722
365.568	-23.88203
365.783	-25.98912
365.998	-7.02445
366.213	18.26482
366.428	-61.80579
366.643	64.63732
366.858	-2.80981
367.073	83.6111
367.288	1.40492
367.503	16.15725
367.718	-17.56062
367.933	-51.27223
368.148	-2.80981
368.363	16.15725
368.578	20.37242
368.793	7.72721
369.008	18.26482
369.223	-44.95179
369.438	7.72721
369.653	-25.98912
369.868	-34.41722
370.083	-17.56062
370.298	18.26482
370.513	18.26482
370.728	-38.63112
370.943	-21.77492
371.157	-55.48573
371.372	28.80304
371.587	-44.95179
371.802	-0.70246
372.017	-17.56062
372.232	-0.70246
372.446	-34.41722
372.661	60.42118
372.876	22.48004
373.091	-76.55171
373.306	-9.13173
373.52	-36.52418
373.735	9.83468
373.95	-55.48573
374.165	-34.41722
374.379	-13.34623
374.594	-36.52418
374.809	3.51233
375.023	-21.77492
375.238	-2.80981
375.453	-38.63112
375.667	-21.77492
375.882	-9.13173
376.097	-51.27223
376.311	-23.88203
376.526	-0.70246
376.741	-66.01904
376.955	7.72721
377.17	-0.70246
377.384	-30.20322
377.599	9.83468
377.813	-38.63112
378.028	-17.56062
378.242	-32.31023
378.457	-57.59244
378.672	-4.91714
378.886	-25.98912
379.101	-49.16544
379.315	-34.41722
379.53	49.88122
379.744	9.83468
379.958	-0.70246
380.173	66.74543
380.387	24.58768
380.602	54.09713
380.816	-9.13173
381.031	28.80304
381.245	-95.5089
381.459	26.69535
381.674	18.26482
381.888	-101.8275
382.103	7.72721
382.317	-34.41722
382.531	-25.98912
382.746	96.26129
382.96	-40.73804
383.174	-42.84492
383.388	-47.05863
383.603	-55.48573
383.817	58.31314
384.031	39.34183
384.246	-42.84492
384.46	20.37242
384.674	9.83468
384.888	-59.69913
385.103	-25.98912
385.317	-9.13173
385.531	-17.56062
385.745	28.80304
385.959	1.40492
386.174	-38.63112
386.388	-23.88203
386.602	62.52924
386.816	-25.98912
387.03	-4.91714
387.244	-32.31023
387.458	-21.77492
387.672	-0.70246
387.887	-40.73804
388.101	51.98916
388.315	-15.45344
388.529	-110.25192
388.743	30.91075
388.957	-30.20322
389.171	-42.84492
389.385	-13.34623
389.599	-11.23899
389.813	28.80304
390.027	58.31314
390.241	-9.13173
390.455	-25.98912
390.669	-17.56062
390.883	16.15725
391.097	-17.56062
391.311	7.72721
391.525	-11.23899
391.738	70.96171
391.952	24.58768
392.166	58.31314
392.38	9.83468
392.594	-9.13173
392.808	11.94218
393.022	18.26482
393.236	-17.56062
393.449	-13.34623
393.663	18.26482
393.877	47.77329
394.091	58.31314
394.305	-17.56062
394.518	20.37242
394.732	-13.34623
394.946	5.61975
395.16	-53.37899
395.373	16.15725
395.587	7.72721
395.801	-49.16544
396.015	-15.45344
396.228	-25.98912
396.442	3.51233
396.656	-4.91714
396.869	41.44967
397.083	3.51233
397.297	49.88122
397.51	-61.80579
397.724	35.12624
397.938	-32.31023
398.151	24.58768
398.365	7.72721
398.578	20.37242
398.792	-51.27223
399.005	37.23403
399.219	-7.02445
399.433	-13.34623
399.646	45.6654
399.86	35.12624
400.073	-38.63112
400.287	64.63732
400.5	-17.56062
400.714	-80.7646
400.927	16.15725
401.141	37.23403
401.354	54.09713
401.567	-13.34623
401.781	-32.31023
401.994	-49.16544
402.208	66.74543
402.421	41.44967
402.635	-15.45344
402.848	3.51233
403.061	75.17808
403.275	-17.56062
403.488	-38.63112
403.701	-40.73804
403.915	83.6111
404.128	24.58768
404.341	35.12624
404.555	-23.88203
404.768	-42.84492
404.981	26.69535
405.195	-32.31023
405.408	22.48004
405.621	54.09713
405.834	62.52924
406.048	102.58669
406.261	-28.09618
406.474	16.15725
406.687	-9.13173
406.9	-17.56062
407.114	24.58768
407.327	11.94218
407.54	-4.91714
407.753	35.12624
407.966	51.98916
408.179	-9.13173
408.392	-15.45344
408.605	-13.34623
408.819	-4.91714
409.032	18.26482
409.245	-42.84492
409.458	20.37242
409.671	-74.44523
409.884	30.91075
410.097	-32.31023
410.31	-42.84492
410.523	16.15725
410.736	62.52924
410.949	51.98916
411.162	35.12624
411.375	58.31314
411.588	-0.70246
411.801	16.15725
412.014	-7.02445
412.227	66.74543
412.44	18.26482
412.653	-34.41722
412.865	49.88122
413.078	22.48004
413.291	49.88122
413.504	70.96171
413.717	20.37242
413.93	-32.31023
414.143	-17.56062
414.356	-40.73804
414.568	26.69535
414.781	75.17808
414.994	28.80304
415.207	117.34672
415.42	1.40492
415.632	-17.56062
415.845	49.88122
416.058	-23.88203
416.271	49.88122
416.483	45.6654
416.696	16.15725
416.909	79.39455
417.121	20.37242
417.334	30.91075
417.547	-47.05863
417.759	-38.63112
417.972	68.85356
418.185	-51.27223
418.397	66.74543
418.61	-17.56062
418.823	85.71941
419.035	16.15725
419.248	47.77329
419.46	-38.63112
419.673	18.26482
419.885	117.34672
420.098	45.6654
420.311	77.2863
420.523	49.88122
420.736	18.26482
420.948	-13.34623
421.161	24.58768
421.373	70.96171
421.586	81.50281
421.798	30.91075
422.01	26.69535
422.223	43.55752
422.435	58.31314
422.648	51.98916
422.86	-4.91714
423.073	-4.91714
423.285	-15.45344
423.497	26.69535
423.71	28.80304
423.922	3.51233
424.134	-99.72133
424.347	16.15725
424.559	16.15725
424.771	37.23403
424.984	35.12624
425.196	33.01848
425.408	24.58768
425.621	83.6111
425.833	24.58768
426.045	85.71941
426.257	47.77329
426.47	45.6654
426.682	37.23403
426.894	-42.84492
427.106	94.15287
427.318	26.69535
427.531	-7.02445
427.743	68.85356
427.955	7.72721
428.167	28.80304
428.379	7.72721
428.591	-68.12563
428.804	104.6952
429.016	75.17808
429.228	92.04447
429.44	37.23403
429.652	75.17808
429.864	68.85356
430.076	14.04971
430.288	43.55752
430.5	75.17808
430.712	66.74543
430.924	79.39455
431.136	33.01848
431.348	60.42118
431.56	58.31314
431.772	24.58768
431.984	102.58669
432.196	3.51233
432.408	142.6521
432.62	79.39455
432.832	87.82774
433.044	64.63732
433.256	28.80304
433.468	37.23403
433.679	9.83468
433.891	37.23403
434.103	83.6111
434.315	41.44967
434.527	113.12946
434.739	108.91229
434.95	75.17808
435.162	79.39455
435.374	92.04447
435.586	68.85356
435.798	174.28813
436.009	134.21663
436.221	75.17808
436.433	81.50281
436.645	98.36974
436.856	108.91229
437.068	117.34672
437.28	117.34672
437.491	159.52406
437.703	60.42118
437.915	85.71941
438.126	151.08791
438.338	119.45538
438.55	153.19692
438.761	51.98916
438.973	134.21663
439.184	83.6111
439.396	134.21663
439.608	100.4782
439.819	102.58669
440.031	102.58669
440.242	115.23808
440.454	96.26129
440.665	68.85356
440.877	127.89025
441.088	180.61589
441.3	121.56407
441.511	111.02086
441.723	83.6111
441.934	87.82774
442.146	94.15287
442.357	134.21663
442.569	172.17891
442.78	153.19692
442.991	68.85356
443.203	132.10782
443.414	108.91229
443.626	182.72519
443.837	66.74543
444.048	210.14789
444.26	144.76102
444.471	113.12946
444.682	269.22351
444.894	66.74543
445.105	159.52406
445.316	167.96055
445.528	127.89025
445.739	193.27198
445.95	212.25747
446.161	165.85139
446.373	132.10782
446.584	189.0532
446.795	265.00332
447.006	178.50662
447.217	195.3814
447.429	180.61589
447.64	184.83451
447.851	248.12334
448.062	212.25747
448.273	189.0532
448.484	151.08791
448.695	231.24458
448.907	182.72519
449.118	233.35436
449.329	186.94385
449.54	197.49084
449.751	210.14789
449.962	256.56318
450.173	271.33363
450.384	205.9288
450.595	214.36707
450.806	262.89326
451.017	286.10501
451.228	201.70978
451.439	260.78321
451.65	353.64262
451.861	176.39736
452.072	288.21528
452.283	252.34322
452.494	345.19943
452.705	269.22351
452.915	214.36707
453.126	300.87729
453.337	309.31899
453.548	235.46415
453.759	296.65654
453.97	317.76099
454.181	364.197
454.391	292.43587
454.602	353.64262
454.813	374.75181
455.024	357.86432
455.235	235.46415
455.445	387.41813
455.656	378.97385
455.867	381.08489
456.078	370.52983
456.288	378.97385
456.499	444.42385
456.71	364.197
456.921	336.75651
457.131	446.5354
457.342	372.64081
457.553	410.64126
457.763	317.76099
457.974	488.76953
458.184	454.98174
458.395	539.45826
458.606	476.09866
458.816	560.58096
459.027	577.48009
459.237	564.80566
459.448	507.77683
459.659	518.33696
459.869	505.66485
460.08	547.90718
460.29	581.70501
460.501	706.36246
460.711	651.4235
460.922	556.35631
461.132	738.06144
461.343	581.70501
461.553	602.83037
461.764	602.83037
461.974	619.73158
462.184	640.85922
462.395	761.30888
462.605	750.74171
462.816	725.38156
463.026	835.28592
463.236	818.37586
463.447	915.6162
463.657	784.55754
463.867	966.35693
464.078	991.72881
464.288	1050.93341
464.498	1029.78837
464.709	1004.41511
464.919	873.33561
465.129	974.81412
465.339	1158.78116
465.55	1116.48645
465.76	1021.33052
465.97	1059.39158
466.18	1025.55943
466.391	1363.92898
466.601	1105.91306
466.811	1351.23884
467.021	1378.73421
467.231	1469.68126
467.441	1262.40951
467.651	1503.52204
467.862	1344.89378
468.072	1478.14147
468.282	1547.93778
468.492	1454.8759
468.702	1636.76741
468.912	1761.54455
469.122	1531.01755
469.332	1882.07942
469.542	1740.39667
469.752	1901.10981
469.962	1829.21506
470.172	1968.76978
470.382	1863.0486
470.592	1922.25418
470.802	1968.76978
471.012	2226.65954
471.222	2199.18503
471.432	2281.60407
471.642	2099.84245
471.852	2412.59961
472.062	2323.86483
472.272	2680.79821
472.482	2503.42789
472.691	2716.68393
472.901	2442.17381
473.111	2636.46369
473.321	2638.57499
473.531	2784.22319
473.741	2754.67645
473.95	3125.91642
474.16	2780.00239
474.37	3224.9737
474.58	3037.36719
474.79	3248.15206
474.999	3102.72765
475.209	3193.3636
475.419	3260.79394
475.628	3561.90678
475.838	3273.43522
476.048	3370.33126
476.258	3448.24258
476.467	3879.45379
476.677	3658.68931
476.886	4039.10836
477.096	3986.60338
477.306	4118.89119
477.515	3807.99177
477.725	3929.88368
477.935	3959.29574
478.144	4240.60664
478.354	4135.68374
478.563	4358.05696
478.773	4483.82112
478.982	4588.56406
479.192	4622.07007
479.401	4793.69807
479.611	4580.18667
479.82	4789.51383
480.03	4992.34425
480.239	4996.52405
480.449	4892.00148
480.658	5090.54508
480.868	5301.39876
481.077	5697.40611
481.287	5174.07992
481.496	5432.80057
481.705	5549.52387
481.915	5651.59616
482.124	5555.77482
482.333	5628.6869
482.543	5797.31545
482.752	5957.47312
482.961	5917.96669
483.171	6082.1744
483.38	6117.49103
483.589	6094.63987
483.799	6204.71475
484.008	6227.55222
484.217	6264.9165
484.426	6468.21147
484.636	6422.59331
484.845	6648.50065
485.054	6530.39994
485.263	6607.07035
485.472	6381.11248
485.682	6861.72138
485.891	6679.56734
486.1	6944.46038
486.309	7101.56505
486.518	7080.90079
486.727	6913.4375
486.936	7448.39388
487.146	7138.75511
487.355	7415.38921
487.564	7489.64193
487.773	7650.42722
487.982	7510.26272
488.191	7759.605
488.4	7640.12437
488.609	8020.98155
488.818	7771.96103
489.027	8070.33842
489.236	8247.10555
489.445	8353.91702
489.654	8074.45096
489.863	8263.54153
490.072	8240.94173
490.281	8477.0958
490.49	8429.88546
490.698	8600.20586
490.907	8589.94928
491.116	8778.596
491.325	8708.89694
491.534	8706.84665
491.743	8782.69528
491.952	9051.04226
492.16	9222.95414
492.369	9292.50349
492.578	9067.42005
492.787	9044.90031
492.996	9091.98466
493.204	9478.55628
493.413	9270.00435
493.622	9451.98556
493.831	9280.23148
494.039	9511.25498
494.248	9568.46788
494.457	9668.5608
494.665	9603.19825
494.874	9754.32517
495.083	9697.15193
495.291	10023.69838
495.5	10101.19836
495.709	10150.13524
495.917	9876.7994
496.126	10406.92478
496.335	10292.82246
496.543	10288.7466
496.752	10309.12534
496.96	10480.2546
497.169	10223.52559
497.377	10694.03959
497.586	10563.74892
497.794	10838.52286
498.003	10370.25355
498.211	10738.81546
498.42	10706.25177
498.628	11056.15523
498.837	10960.57558
499.045	10854.79894
499.254	10856.8334
499.462	11115.11782
499.671	11048.02174
499.879	11206.59368
500.087	11448.39622
500.296	11472.77189
500.504	11393.54586
500.713	11478.8656
500.921	11409.79856
501.129	11600.72177
501.338	11363.07034
501.546	11738.78554
501.754	11584.47622
501.962	11716.45449
502.171	11960.01006
502.379	11970.15562
502.587	11795.62346
502.795	11850.42508
503.004	11870.72041
503.212	12065.51411
503.42	12128.40073
503.628	12298.76724
503.837	12231.84367
504.045	12122.31525
504.253	12296.73937
504.461	12564.36003
504.669	12341.35097
504.877	12430.56419
505.085	12507.60159
505.294	12503.54722
505.502	12365.68315
505.71	12839.97643
505.918	12428.53676
506.126	12839.97643
506.334	12586.65664
506.542	12951.40937
506.75	12651.51527
506.958	12781.21427
507.166	12884.55154
507.374	12880.49936
507.582	12819.71414
507.79	13016.23584
507.998	13044.5958
508.206	13307.89438
508.414	12829.84535
508.622	13062.8267
508.83	13170.17857
509.037	13170.17857
509.245	12927.09809
509.453	13471.913
509.661	13641.98028
509.869	13579.22026
510.077	13700.68836
510.285	13565.04818
510.492	13508.35812
510.7	13674.37128
510.908	13429.39214
511.116	13678.4201
511.324	13573.14653
511.531	13635.90687
511.739	13791.78183
511.947	13797.85451
512.155	13917.27864
512.362	14002.28673
512.57	13880.84519
512.778	14004.31068
512.985	14026.57394
513.193	13911.20646
513.401	14222.88357
513.608	14269.42836
513.816	13743.19942
514.024	14230.97839
514.231	13965.85524
514.439	14429.29253
514.646	14285.61763
514.854	14247.16793
515.061	14133.83843
515.269	14475.83342
515.477	14269.42836
515.684	14530.46745
515.892	14479.88042
516.099	14789.46202
516.307	14793.5087
516.514	15060.58427
516.722	14746.97178
516.929	14898.72127
517.136	15052.49116
517.344	15080.81701
517.551	14819.812
517.759	15099.02647
517.966	14991.79276
518.173	15068.67737
518.381	15451.07732
518.588	15333.72623
518.796	14949.30371
519.003	15242.67873
519.21	15155.67806
519.418	15517.84677
519.625	15570.45349
519.832	15540.10341
520.039	15754.58122
520.247	15669.59829
520.454	15869.91814
520.661	15960.97634
520.868	15671.62167
521.076	16222.02591
521.283	15438.93748
521.49	15706.01934
521.697	15952.88217
521.904	15999.42394
522.112	15760.6515
522.319	16325.23913
522.526	15835.51903
522.733	16193.69367
522.94	15975.14119
523.147	16171.43285
523.354	16274.64383
523.561	16442.6248
523.768	16347.50143
523.975	16622.7645
524.183	16171.43285
524.39	16537.75264
524.597	16750.28981
524.804	16539.77669
525.011	16713.85306
525.218	16614.66797
525.425	16669.32029
525.632	16784.70301
525.838	16845.43392
526.045	16936.53455
526.252	16780.65436
526.459	17183.54571
526.666	17436.67531
526.873	17165.32216
527.08	17222.01842
527.287	17185.57057
527.494	16881.87355
527.701	17778.98444
527.907	17207.84414
528.114	17608.83099
528.321	17537.94056
528.528	17392.12107
528.735	17531.86442
528.941	17418.44839
529.148	17465.02878
529.355	17967.3966
529.562	17562.2454
529.768	17645.29047
529.975	17564.27083
530.182	17712.13564
530.388	17639.21382
530.595	17839.75929
530.802	17742.521
531.008	18263.24541
531.215	17961.31832
531.422	18194.34218
531.628	17799.24239
531.835	18206.50126
532.042	18583.49986
532.248	18624.04522
532.455	18411.19928
532.661	18668.64693
532.868	18378.76932
533.074	18901.82327
533.281	18622.01792
533.487	18731.498
533.694	18611.88145
533.9	18916.01831
534.107	18593.63605
534.313	19319.64623
534.52	18820.7125
534.726	19068.12045
534.933	19128.96769
535.139	19090.43068
535.345	19017.41721
535.552	18952.52075
535.758	19023.50147
535.965	19224.30243
536.171	19283.13051
536.377	19552.97279
536.584	19595.58619
536.79	19362.24959
536.996	19741.70326
537.203	19538.76873
537.409	19477.89651
537.615	19597.61544
537.821	19445.43286
538.028	20277.65208
538.234	20082.72769
538.44	19721.40792
538.646	19865.51389
538.853	19987.31009
539.059	19565.14786
539.265	19690.96571
539.471	19887.84206
539.677	20034.00265
539.883	19885.81221
540.09	19981.21992
540.296	20206.5814
540.502	20533.54907
540.708	20515.26851
540.914	20966.28741
541.12	20505.11279
541.326	20401.5304
541.532	20657.45957
541.738	20795.60757
541.944	20466.522
542.15	21143.09352
542.356	20494.95717
542.562	20783.41727
542.768	20767.16377
542.974	20830.14757
543.18	20960.1912
543.386	21297.57005
543.592	21183.74297
543.798	21321.96321
544.004	21321.96321
544.21	21498.83091
544.415	20962.22327
544.621	21462.23511
544.827	21387.01448
545.033	21531.36158
545.239	21582.19279
545.445	21722.49968
545.651	21519.16246
545.856	21671.66169
546.062	21470.3674
546.268	21517.12929
546.474	21574.05963
546.679	21490.6984
546.885	21250.81811
547.091	21362.61977
547.297	21319.93043
547.502	21665.5613
547.708	21923.84189
547.914	21858.75745
548.119	21818.08167
548.325	22361.22822
548.531	21665.5613
548.736	21879.09592
548.942	22184.21856
549.147	21726.56682
549.353	22188.28744
549.559	22418.20274
549.764	22373.43681
549.97	21936.04567
550.175	22361.22822
550.381	22611.53017
550.586	22322.56857
550.792	22670.5523
550.997	22080.46734
551.203	22546.40575
551.408	22631.8823
551.614	22637.988
551.819	23008.45912
552.025	22902.59867
552.23	23271.11315
552.435	23207.98978
552.641	23177.44733
552.846	23087.86039
553.052	23150.9778
553.257	23256.85921
553.462	23558.2611
553.668	23267.04058
553.873	23047.14115
554.078	23436.06288
554.283	23794.54202
554.489	23446.24563
554.694	23727.32008
554.899	23468.64798
555.105	23368.85863
555.31	24008.45106
555.515	23613.25391
555.72	23615.29072
555.925	23462.53821
556.131	23955.48016
556.336	23827.13562
556.541	24000.30156
556.746	23751.76405
556.951	23544.00407
557.156	23649.91701
557.361	23629.5485
557.567	23941.21909
557.772	24332.42919
557.977	24026.78758
558.182	24012.52582
558.387	24134.77392
558.592	24440.43696
558.797	24187.75119
559.002	24523.99514
559.207	24002.33893
559.412	24301.86229
559.617	24265.1828
559.822	24668.70349
560.027	24189.78881
560.232	24538.26159
560.437	23727.32008
560.642	23926.95817
560.847	23973.81602
561.051	24591.25238
561.256	24530.10932
561.461	24660.55057
561.666	24617.74841
561.871	24917.38605
562.076	24646.28306
562.281	24668.70349
562.485	24430.24724
562.69	24813.42425
562.895	25011.16071
563.1	24996.89034
563.305	24587.17611
563.509	24831.77001
563.714	25245.61825
563.919	25141.63781
564.123	24913.309
564.328	25027.46984
564.533	24913.309
564.737	24850.11595
564.942	25017.27662
565.147	25504.57405
565.351	25223.19062
565.556	25056.01117
565.761	25423.00954
565.965	25149.79293
566.17	24791.00193
566.374	25029.50849
566.579	25282.31858
566.784	25514.76984
566.988	25425.04861
567.193	25445.43945
567.397	25170.18089
567.602	25614.69127
567.806	25661.59481
568.011	25677.90933
568.215	25861.4561
568.42	25596.338
568.624	25571.86721
568.828	25465.8305
569.033	25518.84817
569.237	25926.72084
569.442	26114.36728
569.646	25902.24634
569.85	25918.56264
570.055	26226.5543
570.259	26202.07669
570.463	26418.3039
570.668	26132.7248
570.872	25865.53509
571.076	26191.87776
571.281	26024.62144
571.485	26144.96322
571.689	26206.15627
571.893	26106.20842
572.098	26234.71356
572.302	26244.91267
572.506	26622.30847
572.71	26538.6647
572.914	26681.47269
573.119	26503.9839
573.323	26377.5049
573.527	26616.18811
573.731	26922.22277
573.935	27020.16074
574.139	26748.79904
574.343	26489.70371
574.547	26787.56343
574.751	26975.2721
574.955	26918.1421
575.159	27171.15468
575.364	27146.66867
575.568	26914.06142
575.772	27142.58769
575.976	26605.98753
576.18	26897.73879
576.383	27101.77816
576.587	27144.62818
576.791	26822.24781
576.995	27109.94002
577.199	26852.85203
577.403	26801.84519
577.607	27650.70989
577.811	27258.89778
578.015	27254.81665
578.219	27413.98452
578.422	27250.73553
578.626	27358.88706
578.83	27497.65279
579.034	27707.85296
579.238	27497.65279
579.442	27536.4266
579.645	27360.92769
579.849	27640.50587
580.053	27813.97827
580.257	27742.54742
580.46	27732.34313
580.664	27803.77377
580.868	27885.41055
581.071	27981.33611
581.275	27918.06578
581.479	28105.83899
581.682	27779.2831
581.886	27465.00151
582.09	27254.81665
582.293	27918.06578
582.497	28171.15363
582.7	28052.77168
582.904	28473.2484
583.107	27987.45911
583.311	27711.93464
583.515	28283.41581
583.718	28379.35155
583.922	28720.24864
584.125	28546.73446
584.329	28446.7121
584.532	28283.41581
584.735	28695.75206
584.939	28089.5105
585.142	28636.55262
585.346	28679.4211
585.549	28424.25845
585.753	28442.62961
585.956	28938.68311
586.159	28740.66258
586.363	29065.25806
586.566	29428.67287
586.769	28999.92856
586.973	28740.66258
587.176	29165.29592
587.379	29095.88163
587.582	28973.38875
587.786	28899.89482
587.989	29251.04465
588.192	29214.29497
588.395	29200.00352
588.599	29095.88163
588.802	29538.92887
589.005	29216.33661
589.208	29577.72339
589.411	29140.79662
589.615	29289.83634
589.818	29228.58647
590.021	29206.12842
590.224	29769.65988
590.427	29841.12805
590.63	29408.25542
590.833	29659.39732
591.036	29651.22985
591.239	29696.15116
591.442	29167.33754
591.645	30008.5731
591.848	29571.59792
592.051	29992.23666
592.254	29749.24065
592.457	30212.78475
592.66	29769.65988
592.863	30061.66701
593.066	30361.8667
593.269	30290.38825
593.472	30562.01438
593.675	30372.07802
593.878	30596.73511
594.081	30572.22632
594.284	30425.17742
594.486	30913.32411
594.689	30770.34443
594.892	30525.25166
595.095	30794.85475
595.298	30419.05053
595.5	30551.80247
595.703	31240.16112
595.906	30925.57983
596.109	31007.28592
596.311	30772.38695
596.514	30770.34443
596.717	30549.76009
596.92	31013.41397
597.122	30760.13185
597.325	30192.36306
597.528	30555.88723
597.73	31078.78064
597.933	30325.10617
598.136	31025.67011
598.338	30619.20166
598.541	30927.62246
598.743	30909.23888
598.946	30604.90475
599.148	30805.06745
599.351	30745.83429
599.554	30884.72763
599.756	30633.49864
599.959	31321.8764
600.161	31121.67834
600.363	31283.06133
600.566	31505.74511
600.768	31307.57604
600.971	31266.71831
601.173	31575.21011
601.376	31622.20225
601.578	31846.96018
601.78	31483.27156
601.983	31532.30502
602.185	31289.18999
602.388	31712.10282
602.59	31722.31902
602.792	31448.54009
602.995	31820.39674
603.197	31761.14095
603.399	31781.57381
603.601	31479.18548
603.804	31840.83013
604.006	31752.96786
604.208	31466.92728
604.41	31603.81391
604.613	31846.96018
604.815	31526.17579
605.017	32116.69953
605.219	32159.61578
605.421	31873.52394
605.623	31818.35341
605.826	32006.34752
606.028	31289.18999
606.23	31591.5551
606.432	31683.49773
606.634	32272.01979
606.836	31883.74085
607.038	32253.62597
607.24	32102.39431
607.442	31611.98649
607.644	32135.09209
607.846	32239.31979
608.048	32394.64968
608.25	32312.89556
608.452	32106.4815
608.654	32000.21702
608.856	32380.34246
609.058	32225.01371
609.26	32063.56636
609.462	32024.73912
609.664	32670.59644
609.866	32075.82774
610.067	32396.69358
610.269	32171.87773
610.471	32173.92139
610.673	32619.49199
610.875	32678.77329
611.077	32167.7904
611.278	32008.39103
611.48	32043.13088
611.682	32276.10733
611.884	33089.71175
612.085	32092.17636
612.287	32609.27128
612.489	32386.47411
612.69	32570.43311
612.892	32294.50135
613.094	32825.96328
613.295	32030.86969
613.497	32214.79514
613.699	31910.30505
613.9	32133.04847
614.102	31987.95608
614.304	32151.44118
614.505	31601.77077
614.707	32143.26662
614.908	32382.38634
615.11	32580.6536
615.311	32312.89556
615.513	32343.55294
615.714	32314.93937
615.916	32552.03638
616.117	32265.8885
616.319	32137.13572
616.52	32108.5251
616.722	32020.65209
616.923	32090.13277
617.124	32106.4815
617.326	32390.56189
617.527	32772.80986
617.729	32650.15448
617.93	32660.37543
618.131	32664.46382
618.333	32850.4962
618.534	32909.7856
618.735	32993.61227
618.937	32830.05207
619.138	32725.79093
619.339	32625.62445
619.54	32652.19866
619.742	32549.99231
619.943	32924.09716
620.144	32881.16286
620.345	32733.96804
620.546	32932.27525
620.748	32881.16286
620.949	33216.49053
621.15	33048.81763
621.351	32760.54392
621.552	32533.63984
621.753	32100.35071
621.954	32948.63156
622.155	32517.28751
622.356	32944.54247
622.558	32964.98803
622.759	32815.74133
622.96	32830.05207
623.161	32519.33154
623.362	32619.49199
623.563	32928.1862
623.764	32872.98503
623.965	32846.40735
624.166	32797.342
624.366	32613.35956
624.567	32543.86012
624.768	32715.56959
624.969	32411.00092
625.17	32778.94286
625.371	32938.40885
625.572	32656.28704
625.773	32709.43682
625.973	33429.1764
626.174	32703.30407
626.375	32922.05264
626.576	33189.90699
626.777	33300.33407
626.977	33191.95186
627.178	33326.91962
627.379	32770.76553
627.58	32991.56766
627.78	33089.71175
627.981	33241.0296
628.182	33277.83899
628.382	32967.0326
628.583	32866.85168
628.784	33243.07455
628.984	32599.05063
629.185	32895.47417
629.386	32556.12453
629.586	32785.07588
629.787	33157.18944
629.987	32901.60762
630.188	32875.02948
630.388	33249.20939
630.589	32637.88942
630.79	32535.68389
630.99	32946.58701
631.191	33114.24875
631.391	32991.56766
631.591	33294.19901
631.792	33281.92898
631.992	33271.70403
632.193	33572.34861
632.393	33382.13736
632.594	33359.64098
632.794	33447.58341
632.994	32838.22969
633.195	33347.37039
633.395	33347.37039
633.595	33249.20939
633.796	33140.83094
633.996	33318.7394
634.196	33453.71914
634.397	33768.72427
634.597	33042.6836
634.797	33907.84214
634.997	33537.57682
635.198	33650.07708
635.398	33396.45342
635.598	34157.47646
635.798	34112.45647
635.998	34147.24449
636.199	33789.1818
636.399	33654.16818
636.599	33598.93941
636.799	33517.12325
636.999	33169.45844
637.199	33496.66999
637.399	33206.26604
637.599	33607.1213
637.799	33776.90724
637.999	33887.38264
638.199	33463.94541
638.399	34012.191
638.599	33930.34799
638.799	34452.198
638.999	34380.5569
639.199	34227.05634
639.399	33707.35366
639.599	34089.94714
639.799	33521.21394
639.999	33715.53624
640.199	33328.96469
640.399	33840.32709
640.599	32564.30085
640.799	34265.94111
640.998	34153.38366
641.198	34182.03357
641.398	34034.69883
641.598	33954.9003
641.798	34124.73447
641.997	33952.85426
642.197	34046.976
642.397	34626.20411
642.597	33801.45648
642.796	33643.94045
642.996	33738.03859
643.196	34096.08601
643.395	33592.80302
643.595	33664.39599
643.795	33607.1213
643.994	34079.71577
644.194	33950.80822
644.394	34284.36069
644.593	34120.64179
644.793	34515.65564
644.992	34284.36069
645.192	34016.2833
645.392	34392.83789
645.591	34192.26586
645.791	34104.27121
645.99	34317.10738
646.19	33873.0612
646.389	34319.15408
646.589	34390.79105
646.788	34626.20411
646.987	33928.30198
647.187	34564.78681
647.386	34658.96154
647.586	34190.2194
647.785	34509.5144
647.984	34540.22093
648.184	34644.63004
648.383	34196.3588
648.582	34194.31233
648.782	34347.80829
648.981	34433.77554
649.18	34073.577
649.38	34339.6213
649.579	34368.27606
649.778	34548.40949
649.977	34681.4829
650.177	34263.89451
650.376	34509.5144
650.575	34583.21161
650.774	34096.08601
650.973	34482.90282
651.173	34624.15681
651.372	34577.06997
651.571	34708.09972
651.77	35203.71895
651.969	34585.25883
652.168	34689.67262
652.367	34368.27606
652.566	34278.2208
652.765	34691.72006
652.964	34534.07955
653.163	34550.45664
653.362	34284.36069
653.561	34368.27606
653.76	34931.30033
653.959	34663.0563
654.158	34855.52912
654.357	34613.92035
654.556	34679.43549
654.755	34900.58154
654.954	34407.16589
655.153	34274.12755
655.352	34630.29873
655.551	34699.90985
655.749	34957.92411
655.948	35074.66827
656.147	35377.86536
656.346	35539.75153
656.545	34830.95598
656.743	34720.38465
656.942	35076.71654
657.141	34630.29873
657.34	34374.41646
657.538	34796.14512
657.737	35002.98149
657.936	35394.25745
658.135	35418.8462
658.333	35140.21547
658.532	35254.93481
658.731	35226.25356
658.929	35293.86089
659.128	34720.38465
659.326	34962.02015
659.525	35386.06137
659.724	34615.96764
659.922	34390.79105
660.121	34603.684
660.319	34808.43116
660.518	34597.54224
660.716	34933.34829
660.915	35713.96914
661.113	35320.49555
661.312	35259.03221
661.51	35353.27782
661.709	35048.04109
661.907	35371.71841
662.105	34816.62194
662.304	35379.91435
662.502	35005.0296
662.701	35127.925
662.899	34679.43549
663.097	35412.69894
663.296	35369.66943
663.494	35652.47619
663.692	35554.09742
663.891	35429.09172
664.089	34878.05506
664.287	35082.8614
664.485	34876.00722
664.684	34994.78907
664.882	34667.15107
665.08	35123.82822
665.278	35160.69996
665.476	35504.91256
665.675	35521.30718
665.873	35443.43567
666.071	35142.2639
666.269	35295.90968
666.467	34826.86052
666.665	35103.34457
666.863	34947.68411
667.061	34833.00372
667.259	34943.58814
667.457	35158.65149
667.655	35074.66827
667.853	34867.81593
668.051	34734.71725
668.249	34624.15681
668.447	34630.29873
668.645	34839.14696
668.843	34685.57775
669.041	34523.844
669.239	34521.7969
669.437	34425.58788
669.635	34155.43006
669.833	34667.15107
670.031	34143.15173
670.229	34288.45397
670.426	34519.74981
670.624	34689.67262
670.822	34636.44069
671.02	34722.43215
671.218	34486.99687
671.415	34517.70272
671.613	34298.68724
671.811	34564.78681
672.009	34726.52717
672.206	34468.57379
672.404	34294.59392
672.602	34411.25964
672.799	34728.57468
672.997	34898.53365
673.195	34458.33889
673.392	34931.30033
673.59	34517.70272
673.788	34701.95731
673.985	34128.82717
674.183	34313.01399
674.38	34542.26806
674.578	34486.99687
674.775	34579.11718
674.973	34261.84791
675.17	34413.30652
675.368	34462.43284
675.565	34517.70272
675.763	34577.06997
675.96	34220.91677
676.158	34284.36069
676.355	33682.80624
676.553	34914.91685
676.75	34126.78082
676.947	34343.71479
677.145	34366.22926
677.342	34521.7969
677.539	34454.24496
677.737	34407.16589
677.934	33958.9924
678.131	34411.25964
678.329	34728.57468
678.526	34638.48802
678.723	34511.56148
678.92	34472.66778
679.118	34202.49824
679.315	34261.84791
679.512	34351.90181
679.709	34319.15408
679.906	34282.31405
680.104	34229.10288
680.301	33932.39399
680.498	33304.42412
680.695	33351.46057
680.892	33920.118
681.089	33746.22136
681.286	33719.62754
681.483	33322.82951
681.68	33519.16859
681.877	33854.64816
682.075	33517.12325
682.272	33664.39599
682.469	33735.99291
682.665	33797.3649
682.862	33738.03859
683.059	33576.43947
683.256	33463.94541
683.453	33793.27334
683.65	33603.03035
683.847	33723.71886
684.044	33453.71914
684.241	32870.94057
684.438	33668.48713
684.635	33789.1818
684.831	33828.05203
685.028	33433.26682
685.225	33787.13603
685.422	33729.85587
685.619	33600.98488
685.815	33564.16693
686.012	33690.98866
686.209	33441.44771
686.405	33449.62865
686.602	33120.38306
686.799	32872.98503
686.996	33770.77
687.192	33826.0062
687.389	33944.67011
687.586	33369.86656
687.782	33249.20939
687.979	33721.6732
688.175	32979.30009
688.372	32987.47846
688.568	33210.35582
688.765	32707.39257
688.962	32821.87449
689.158	32670.59644
689.355	32805.51945
689.551	32394.64968
689.748	32719.65812
689.944	32523.41962
690.14	32415.08876
690.337	32455.96758
690.533	33175.59298
690.73	32670.59644
690.926	33012.01384
691.123	32780.9872
691.319	32920.00813
691.515	32723.74665
691.712	32650.15448
691.908	32586.78592
692.104	32128.96122
692.301	31977.73868
692.497	32120.78675
692.693	32717.61385
692.889	32480.49531
693.086	32780.9872
693.282	32568.38902
693.478	32709.43682
693.674	32122.83036
693.87	32233.1886
694.067	32427.35231
694.263	32276.10733
694.459	32265.8885
694.655	32051.30505
694.851	32194.35816
695.047	31936.86956
695.243	31985.9126
695.439	31971.60826
695.635	32004.30402
695.831	32272.01979
696.027	31961.39094
696.224	31853.09025
696.42	31689.62736
696.615	31928.69583
696.811	32020.65209
697.007	31775.44393
697.203	31830.61341
697.399	32016.56506
697.595	31949.13022
697.791	32182.09608
697.987	32431.44018
698.183	32227.05743
698.379	31395.42231
698.575	32165.74674
698.77	31403.5942
698.966	31985.9126
699.162	31996.13004
699.358	32294.50135
699.554	32047.21796
699.749	32366.03534
699.945	31685.54094
700.141	31810.18012
700.337	32288.36999
700.532	31996.13004
700.728	32341.5091
700.924	32161.65943
701.119	31675.3249
701.315	31244.24682
701.511	31074.69518
701.706	31473.05637
701.902	31123.7211
702.097	31389.2934
702.293	31156.40552
702.489	31342.30561
702.684	31628.33173
702.88	31683.49773
703.075	30988.90185
703.271	31413.80911
703.466	31142.10604
703.662	31409.72314
703.857	31240.16112
704.053	31399.50825
704.248	31352.52027
704.443	32077.87131
704.639	31916.43529
704.834	31679.41131
705.03	31432.19604
705.225	31289.18999
705.42	31428.11005
705.616	31303.49024
705.811	30437.43125
706.006	31258.54684
706.202	31309.61895
706.397	31238.11827
706.592	31256.50398
706.787	31340.26268
706.983	31099.20803
707.178	32090.13277
707.373	31270.80406
707.568	30917.40935
707.763	30586.52309
707.959	31109.42178
708.154	30780.55704
708.349	30907.19627
708.544	31070.60973
708.739	30762.17436
708.934	30831.62061
709.129	30905.15366
709.324	30457.85439
709.519	30709.06946
709.714	30247.50189
709.909	30533.42111
710.104	29888.09358
710.299	30280.17717
710.494	30470.10834
710.689	31103.29353
710.884	30837.7483
711.079	31209.51853
711.274	31199.30441
711.469	31579.29634
711.664	30686.60227
711.859	30772.38695
712.054	30578.3535
712.249	30827.53549
712.443	30372.07802
712.638	30645.75325
712.833	29628.7694
713.028	29779.86953
713.223	29986.11052
713.417	30798.93983
713.612	30623.28651
713.807	30890.85543
714.002	30510.95515
714.196	30704.9845
714.391	30655.96545
714.586	30809.15253
714.78	30892.89803
714.975	30772.38695
715.17	30124.97232
715.364	30674.34751
715.559	30760.13185
715.754	30731.53681
715.948	30086.17216
716.143	30173.98364
716.337	29594.05804
716.532	30429.26203
716.726	30588.56549
716.921	30821.40783
717.115	30841.83343
717.31	30574.26871
717.504	30476.23533
717.699	30339.40188
717.893	29894.21957
718.088	30059.62493
718.282	30327.14841
718.476	29892.17757
718.671	29559.34699
718.865	29577.72339
719.059	29344.96203
719.254	29053.0087
719.448	28942.76611
719.642	29438.88163
719.837	28938.68311
720.031	29175.50401
720.225	28897.85334
720.419	29283.71131
720.614	29273.50295
720.808	29391.92155
721.002	28710.04172
721.196	28899.89482
721.39	29099.96479
721.585	29657.35546
721.779	29502.17653
721.973	29336.79521
722.167	29018.30237
722.361	29240.83637
722.555	29412.3389
722.749	29146.92143
722.943	28691.66932
723.137	28477.33092
723.331	28569.18881
723.525	28528.36282
723.719	28910.10223
723.913	29226.54482
724.107	28477.33092
724.301	28348.7335
724.495	28677.37973
724.689	28722.29003
724.883	28250.75738
725.077	28297.70396
725.271	28432.4234
725.465	28348.7335
725.659	28903.97778
725.853	28775.3665
726.046	28652.88341
726.24	28581.43669
726.434	28136.45509
726.628	28965.22269
726.822	28203.81138
727.015	28801.905
727.209	28422.21722
727.403	28934.60012
727.596	29126.50543
727.79	29285.75298
727.984	29069.34119
728.177	28828.44367
728.371	28887.64596
728.565	28703.91757
728.758	28561.02358
728.952	28420.17599
729.146	28509.99126
729.339	28573.27143
729.533	28899.89482
729.726	29265.33628
729.92	28803.94643
730.113	28863.14835
730.307	28675.33836
730.5	28656.96612
730.694	28808.02929
730.887	28740.66258
731.081	28965.22269
731.274	28610.01522
731.468	28179.31804
731.661	28122.16754
731.854	27779.2831
732.048	27989.50011
732.241	27750.71087
732.435	28075.22314
732.628	28075.22314
732.821	28311.99216
733.014	28254.83967
733.208	28603.89123
733.401	28644.71801
733.594	28644.71801
733.788	27934.3935
733.981	28354.85709
734.174	28299.74513
734.367	28369.1455
734.56	28307.90981
734.754	28624.30457
734.947	28518.15638
735.14	28710.04172
735.333	28314.03334
735.526	28581.43669
735.719	27452.75736
735.912	27316.03413
736.105	27193.60035
736.298	27620.09792
736.491	27513.97855
736.684	27856.83746
736.877	27838.46917
737.07	27995.62312
737.263	27664.99557
737.456	28089.5105
737.649	27720.09802
737.842	27446.6353
738.035	27524.18219
738.228	27687.44461
738.421	27540.50808
738.614	27516.01928
738.807	27460.92012
739	27218.08673
739.192	27281.34408
739.385	27667.03638
739.578	27648.66908
739.771	27571.11934
739.964	27532.34513
740.156	28050.73064
740.349	27660.91394
740.542	27562.95631
740.735	27679.28131
740.927	27905.82003
741.12	27781.32399
741.313	27195.64088
741.505	27575.20086
741.698	27320.11534
741.891	27328.27777
742.083	27499.69351
742.276	27571.11934
742.468	27273.18177
742.661	26991.59517
742.854	26920.18243
743.046	27167.07366
743.239	27383.37471
743.431	27211.96512
743.624	27507.85638
743.816	26881.41625
744.009	27383.37471
744.201	27462.96081
744.393	26814.08674
744.586	27128.30429
744.778	27167.07366
744.971	27001.79713
745.163	26810.00622
745.355	26818.16728
745.548	26960.9895
745.74	26879.37594
745.932	27316.03413
746.125	26887.53719
746.317	26954.8684
746.509	26687.5932
746.702	27195.64088
746.894	26744.71861
747.086	26512.14405
747.278	26820.20754
747.471	26793.68418
747.663	27058.92874
747.855	27340.52145
748.047	26995.67595
748.239	27083.41405
748.431	26656.99079
748.623	26426.46378
748.815	26689.63338
749.008	26832.44918
749.2	27248.69497
749.392	26756.95992
749.584	26620.26835
749.776	26748.79904
749.968	26426.46378
750.16	26569.26578
750.352	26956.90877
750.544	26771.24152
750.736	26665.1514
750.928	26520.30422
751.12	26359.14556
751.311	26093.9702
751.503	26012.38364
751.695	26542.74482
751.887	26812.04648
752.079	27052.80744
752.271	26277.5501
752.463	26644.74992
752.654	26314.26773
752.846	26754.9197
753.038	26479.50362
753.23	26185.75842
753.421	25959.35391
753.613	26004.22514
753.805	26414.22397
753.997	26093.9702
754.188	25892.04871
754.38	25588.18104
754.572	25386.30658
754.763	25818.62715
754.955	25584.10257
755.146	26240.83302
755.338	25537.20076
755.53	25796.19327
755.721	25598.37724
755.913	26406.06413
756.104	26071.53361
756.296	25612.65201
756.487	25692.18463
756.679	25902.24634
756.87	25467.86961
757.062	25590.22027
757.253	25416.89233
757.445	25176.29732
757.636	25125.32767
757.827	25331.25342
758.019	25335.33138
758.21	25245.61825
758.401	25147.75415
758.593	25031.54715
758.784	24803.23225
758.975	24695.20074
759.167	25127.36643
759.358	24791.00193
759.549	24179.60072
759.74	24257.03192
759.932	24297.78675
760.123	24515.84293
760.314	24621.82476
760.505	24487.31053
760.696	24405.79216
760.888	24597.36681
761.079	24420.05758
761.27	24911.27048
761.461	24413.94381
761.652	24854.19285
761.843	24475.08251
762.034	24650.35948
762.225	24181.63833
762.416	24711.50695
762.607	24395.60266
762.798	24711.50695
762.989	24583.09984
763.18	24157.18715
763.371	23888.25064
763.562	24477.12051
763.753	24098.09844
763.944	24316.12677
764.135	23880.10182
764.326	24269.25826
764.517	24250.91879
764.708	23933.06997
764.899	23499.19724
765.089	23814.91293
765.28	23623.438
765.471	23682.50725
765.662	23605.10668
765.853	23896.39951
766.043	23407.55157
766.234	23605.10668
766.425	22973.84989
766.615	23201.88123
766.806	23472.72117
766.997	23678.43342
767.187	23043.0693
767.378	23829.17275
767.569	23821.02426
767.759	23670.28582
767.95	23700.83959
768.141	23299.62149
768.331	23442.17252
768.522	23238.53296
768.712	23735.46802
768.903	23706.95043
769.093	23150.9778
769.284	23002.35153
769.474	23055.28489
769.665	22813.03161
769.855	22880.20629
770.046	22900.56298
770.236	22591.1784
770.426	22585.07294
770.617	22943.31315
770.807	22855.7787
770.998	22959.59932
771.188	22819.13824
771.378	22650.19951
771.569	22768.25057
771.759	22717.36505
771.949	22709.22357
772.139	22815.06715
772.33	22243.21868
772.52	22760.10874
772.71	23022.71025
772.9	22853.74309
773.09	22751.96697
773.281	22884.2776
773.471	22448.72597
773.661	22243.21868
773.851	21807.91296
774.041	22037.74908
774.231	22084.53583
774.421	22204.56308
774.611	21903.50258
774.802	21974.69184
774.992	21907.57042
775.182	21809.9467
775.372	21936.04567
775.562	22108.9471
775.752	21899.43477
775.942	21700.13066
776.131	21580.15949
776.321	21128.8666
776.511	21543.56084
776.701	21728.6004
776.891	21915.70612
777.081	21702.16419
777.271	21403.27793
777.461	21885.19753
777.651	21517.12929
777.84	21441.90467
778.03	21025.21934
778.22	21061.79951
778.41	21076.02549
778.599	21090.25167
778.789	21360.58691
778.979	21293.50458
779.169	21149.19084
779.358	21059.76725
779.548	21311.79932
779.738	21059.76725
779.927	21136.99625
780.117	20706.2155
780.307	21291.47185
780.496	21216.2637
780.686	21216.2637
780.875	20669.64833
781.065	20968.31949
781.254	20566.04868
781.444	20655.42813
781.633	20564.01743
781.823	20777.32218
782.012	20598.54936
782.202	20793.57585
782.391	20492.92606
782.581	20334.51232
782.77	20003.55073
782.96	20454.33575
783.149	20216.73404
783.338	20488.86385
783.528	20212.67297
783.717	20200.48987
783.906	20170.03278
784.096	20320.29695
784.285	20149.72858
784.474	20413.716
784.663	20356.85117
784.853	20101.0002
785.042	19975.12979
785.231	20606.6747
785.42	20117.24272
785.61	19761.99901
785.799	20192.36789
785.988	20389.34496
786.177	19822.8888
786.366	19991.37022
786.555	19774.17667
786.744	19936.55984
786.933	19956.85962
787.122	20115.21239
787.312	19916.26047
787.501	19737.64416
787.69	19469.7805
787.879	19542.82701
788.068	19246.61612
788.257	19218.21696
788.445	19090.43068
788.634	19445.43286
788.823	19019.44529
789.012	19238.50199
789.201	19260.816
789.39	18920.07407
789.579	19254.73031
789.768	19400.79707
789.957	19214.16
790.145	19427.17252
790.334	19504.27401
790.523	19400.79707
790.712	19277.04468
790.9	19427.17252
791.089	18624.04522
791.278	18999.16466
791.467	18942.38106
791.655	19173.59133
791.844	18926.15775
792.033	18776.10429
792.221	18845.04506
792.41	18814.62945
792.599	18384.84987
792.787	18547.01036
792.976	18597.69056
793.164	18883.57279
793.353	18780.1595
793.541	18571.33655
793.73	18204.47474
793.918	18382.82301
794.107	18401.06482
794.295	18332.15295
794.484	18376.74248
794.672	18494.30551
794.861	18265.27204
795.049	18208.52779
795.238	18172.05087
795.426	18510.52211
795.614	17910.6672
795.803	18090.99528
795.991	18013.99782
796.179	18184.20971
796.368	18080.86374
796.556	18155.83928
796.744	18115.31134
796.932	18003.86696
797.121	18176.1038
797.309	18022.10257
797.497	17934.97946
797.685	18066.67973
797.874	17886.35544
798.062	18070.73229
798.25	17730.36677
798.438	18275.40525
798.626	18167.99795
798.814	18212.58086
799.002	17803.29402
799.19	17989.68391
799.378	17841.78517
799.566	17825.57822
799.755	17736.44387
799.943	17649.34159
800.131	17855.96644
800.318	17649.34159
800.506	17920.79725
800.694	17604.78
800.882	17580.47434
801.07	17892.43333
801.258	17728.34107
801.446	17981.57938
801.634	17653.39273
801.822	17750.6239
802.01	17754.67536
802.197	18072.75857
802.385	17574.398
802.573	17847.86284
802.761	17625.03507
802.949	17809.37148
803.136	17491.35756
803.324	17612.88199
803.512	17778.98444
803.699	18115.31134
803.887	17819.50067
804.075	18133.54874
804.262	17997.78849
804.45	17623.00955
804.638	17588.57618
804.825	17937.00551
805.013	17752.64963
805.201	17866.09602
805.388	17578.44889
805.576	17835.70754
805.763	17319.21735
805.951	17078.25725
806.138	17402.2469
806.326	17627.0606
806.513	17240.2427
806.701	17177.47117
806.888	16851.50714
807.075	17503.50949
807.263	17315.16725
807.45	17432.62486
807.638	17596.67806
807.825	17463.00351
808.012	17197.71975
808.2	17572.37256
808.387	17408.32244
808.574	17930.92738
808.761	17327.31757
808.949	17651.36716
809.136	17116.72715
809.323	17256.44226
809.51	17298.96701
809.698	17357.69382
809.885	17491.35756
810.072	17912.6932
810.259	17892.43333
810.446	17612.88199
810.633	17554.14374
810.82	17714.16131
811.008	17687.82789
811.195	17730.36677
811.382	17430.59964
811.569	17813.42315
811.756	17373.89477
811.943	17673.64859
812.13	17649.34159
812.317	17544.01673
812.504	17544.01673
812.691	17785.06179
812.878	17537.94056
813.064	17961.31832
813.251	17712.13564
813.438	17562.2454
813.625	17588.57618
813.812	17414.398
813.999	17446.80148
814.186	17570.34712
814.372	17499.45883
814.559	17655.4183
814.746	17477.18046
814.933	17379.97018
815.12	16794.82467
815.306	17029.66512
815.493	17074.20785
815.68	17108.62814
815.866	17224.04333
816.053	17819.50067
816.24	17106.6034
816.426	17175.44633
816.613	17495.40819
816.799	17566.29626
816.986	16956.77985
817.173	17272.64201
817.359	17315.16725
817.546	17161.27251
817.732	17047.88698
817.919	17414.398
818.105	17349.59342
818.292	17390.09592
818.478	17215.94371
818.665	17388.07076
818.851	17300.99203
819.037	17365.79427
819.224	17315.16725
819.41	16970.95171
819.597	16859.60479
819.783	17165.32216
819.969	16918.31401
820.156	17080.28196
820.342	16952.73077
820.528	16968.92715
820.714	16983.09913
820.901	17222.01842
821.087	16972.97628
821.273	17151.14845
821.459	17029.66512
821.646	17264.54211
821.832	17049.91165
822.018	16758.38697
822.204	16600.49912
822.39	16594.42678
822.576	16499.29615
822.762	16501.32015
822.948	16566.0895
823.134	16570.13766
823.32	16363.69234
823.507	16681.46548
823.693	16798.87336
823.879	16669.32029
824.065	16171.43285
824.25	16547.8729
824.436	16361.66847
824.622	16307.02469
824.808	16487.15215
824.994	16560.01728
825.18	16406.19406
825.366	16462.86438
825.552	16365.71621
825.738	16276.66762
825.923	16725.99856
826.109	17070.15845
826.295	16519.53631
826.481	16590.37857
826.667	16497.27214
826.852	16408.21797
827.038	16394.05062
827.224	16515.48826
827.409	16135.0065
827.595	16234.1684
827.781	16050.01366
827.966	16252.38225
828.152	15750.53438
828.338	15764.69835
828.523	15693.87896
828.709	15888.12958
828.894	15212.32965
829.08	15598.78038
829.266	15532.01008
829.451	15534.03341
829.637	15339.79609
829.822	15540.10341
830.008	15669.59829
830.193	15552.24342
830.378	15394.4249
830.564	15639.24763
830.749	15455.12394
830.935	15619.01397
831.12	15343.84266
831.305	15888.12958
831.491	15469.28711
831.676	15442.98409
831.861	15442.98409
832.047	15736.37045
832.232	15540.10341
832.417	15295.2839
832.602	15406.56467
832.788	15540.10341
832.973	15649.3645
833.158	15736.37045
833.343	15459.17055
833.528	15493.5669
833.714	15353.95909
833.899	15167.81769
834.084	14951.327
834.269	15202.21329
834.454	14781.36867
834.639	15042.37478
834.824	15254.81837
835.009	15196.14348
835.194	14878.48821
835.379	15147.58498
835.564	14568.91305
835.749	15032.25839
835.934	14528.44398
836.119	14194.55145
836.304	14075.14733
836.489	14451.55132
836.674	14649.8498
836.859	14647.82641
837.044	14661.99017
837.228	14607.35823
837.413	14710.55128
837.598	14835.99859
837.783	14558.79583
837.968	14463.69239
838.152	14071.0996
838.337	14241.09687
838.522	14301.80677
838.707	14388.82156
838.891	14346.32635
839.076	14326.09028
839.261	14065.02799
839.445	14621.52214
839.63	14243.12056
839.815	14534.51437
839.999	14686.27079
840.184	14815.76535
840.368	14793.5087
840.553	14552.72548
840.737	14184.43274
840.922	14317.99581
841.106	14040.74132
841.291	13947.6392
841.475	13769.51511
841.66	13937.51908
841.844	13714.85887
842.029	14040.74132
842.213	14046.81302
842.397	13905.13426
842.582	13546.82668
842.766	13895.01386
842.951	13388.89449
843.135	13508.35812
843.319	13350.42025
843.504	13226.88754
843.688	13295.74379
843.872	13816.07239
844.056	13617.68647
844.241	13467.86347
844.425	13737.1265
844.609	13281.56791
844.793	13484.06151
844.977	13593.39216
845.161	13340.29521
845.346	13712.83452
845.53	13500.25931
845.714	13654.127
845.898	13127.6445
846.082	13313.96961
846.266	13271.44215
846.45	13340.29521
846.634	13431.41698
846.818	13366.62011
847.002	13083.08279
847.186	13455.71477
847.37	13198.5335
847.554	13522.5309
847.738	13255.24072
847.922	13415.21814
848.106	13560.99898
848.29	13374.71994
848.473	13147.89908
848.657	13066.87795
848.841	12781.21427
849.025	12584.62971
849.209	12369.73842
849.392	12463.00214
849.576	12381.90406
849.76	12507.60159
849.944	12495.43841
850.127	12854.1597
850.311	12655.56873
850.495	12925.07212
850.678	13000.02971
850.862	12977.74575
851.046	12744.73882
851.229	12685.96891
851.413	12592.7374
851.596	12831.87158
851.78	12564.36003
851.964	12617.0599
852.147	12596.79122
852.331	12600.845
852.514	12396.097
852.698	12343.37869
852.881	12179.11046
853.065	12112.17263
853.248	11696.15261
853.431	11923.4844
853.615	11576.35322
853.798	11862.60238
853.982	11655.54618
854.165	11773.29508
854.348	11686.00134
854.532	11864.6319
854.715	11921.45512
854.898	12033.0536
855.081	11649.45491
855.265	11828.09924
855.448	11661.63737
855.631	11960.01006
855.814	11750.96567
855.997	11681.94077
856.181	11574.32245
856.364	11789.534
856.547	11673.81952
856.73	11886.95608
856.913	11604.78307
857.096	11848.3955
857.279	11596.66044
857.462	11694.12237
857.645	11683.97106
857.828	11720.51476
858.011	11399.6407
858.194	11417.92468
858.377	11013.45245
858.56	11318.36887
858.743	11139.51349
858.926	11216.75635
859.109	11133.41471
859.292	11106.98559
859.475	11170.00591
859.658	11226.91876
859.841	11001.25077
860.023	11086.65426
860.206	11009.38527
860.389	10846.66099
860.572	10637.04362
860.755	10478.21789
860.937	10594.29034
861.12	10781.55067
861.303	10748.99099
861.486	10832.41913
861.668	10710.3224
861.851	10667.57836
862.034	10374.32834
862.216	10461.92371
862.399	10174.60067
862.581	10223.52559
862.764	10154.21295
862.947	10382.47777
863.129	10694.03959
863.312	10610.57794
863.494	10398.77599
863.677	10661.47164
863.859	10557.6403
864.042	10502.65761
864.224	10103.23756
864.406	10272.44265
864.589	10129.74585
864.771	10229.64065
864.954	9913.53123
865.136	9848.22689
865.318	9744.11654
865.501	10031.85724
865.683	10091.00216
865.865	9986.98068
866.048	9705.32027
866.23	9962.49963
866.412	9856.39076
866.594	9813.52778
866.777	9852.30886
866.959	9921.69322
867.141	9697.15193
867.323	9646.09422
867.505	9754.32517
867.687	9778.82434
867.869	9503.08069
868.052	10074.68751
868.234	9944.13746
868.416	10013.49949
868.598	9541.90629
868.78	9758.40852
868.962	9599.11256
869.144	9664.4761
869.326	9556.20902
869.508	9795.15592
869.69	9752.28348
869.872	9611.36944
870.054	9917.61225
870.236	9660.39135
870.417	9703.27821
870.599	9580.72617
870.781	9374.30163
870.963	9525.55937
871.145	9562.33852
871.327	9480.60007
871.508	9713.48836
871.69	9505.12428
871.872	9458.11751
872.054	9509.21143
872.235	9182.03368
872.417	9355.89935
872.599	9089.9377
872.78	9402.92476
872.962	9177.94126
873.144	9362.03359
873.325	9231.13743
873.507	9208.63275
873.689	9323.18089
873.87	9370.21234
874.052	9061.27851
874.233	9298.63927
874.415	9018.28334
874.596	9421.32366
874.778	8887.20262
874.959	9421.32366
875.141	9143.15294
875.322	9417.23513
875.503	9157.47814
875.685	9366.123
875.866	9067.42005
876.048	9308.86523
876.229	9091.98466
876.41	9085.84374
876.592	9067.42005
876.773	9003.94991
876.954	8922.02802
877.136	9265.91338
877.317	8995.75899
877.498	9198.40268
877.679	9073.56144
877.86	9333.40586
878.042	8919.97961
878.223	8995.75899
878.404	8842.12678
878.585	9055.13682
878.766	9077.65561
878.947	9421.32366
879.128	9055.13682
879.309	8950.7039
879.49	8784.7449
879.672	9349.76496
879.853	8962.9925
880.034	9153.38531
880.215	9028.52099
880.396	9026.47349
880.576	9026.47349
880.757	9096.07851
880.938	8903.59168
881.119	9137.01331
881.3	9182.03368
881.481	9474.46865
881.662	9329.31592
881.843	9470.38096
882.023	9586.85511
882.204	9462.20539
882.385	9063.32571
882.566	9012.14055
882.747	8866.71468
882.927	9145.19945
883.108	8956.84828
883.289	9169.75621
883.469	8866.71468
883.65	9184.07986
883.831	9053.08955
884.011	9349.76496
884.192	9206.58677
884.373	9407.01352
884.553	9280.23148
884.734	9339.54064
884.914	9218.8624
885.095	9372.25699
885.275	9222.95414
885.456	9331.3609
885.636	9165.66359
885.817	9676.73
885.997	9378.39084
886.178	9592.9839
886.358	9304.77489
886.538	9468.3371
886.719	9404.96915
886.899	9719.61427
887.08	9370.21234
887.26	9443.80941
887.44	9190.21831
887.621	9235.22897
887.801	8879.00766
887.981	9216.81651
888.161	9192.26443
888.342	9094.03159
888.522	9132.92014
888.702	9366.123
888.882	9079.70267
889.062	9108.35968
889.242	9016.23576
889.423	9200.44873
889.603	9012.14055
889.783	9102.21917
889.963	8559.17673
890.143	9272.04981
890.323	9003.94991
890.503	9247.50318
890.683	9110.40648
890.863	9186.12603
891.043	9411.10221
891.223	9427.45633
891.403	9053.08955
891.583	9214.77059
891.763	9055.13682
891.943	9102.21917
892.122	9001.9022
892.302	9100.1723
892.482	8928.17314
892.662	8856.47003
892.842	8678.1406
893.022	8688.39318
893.201	8542.76297
893.381	9143.15294
893.561	9224.99999
893.741	9030.56846
893.92	8903.59168
894.1	8883.10517
894.28	8860.56795
894.459	8766.2977
894.639	8772.44693
894.819	8952.75204
894.998	8655.58331
895.178	8858.519
895.357	8667.88757
895.537	8788.84408
895.716	8887.20262
895.896	8950.7039
896.075	8462.7285
896.255	8797.04221
896.434	8583.79511
896.614	8758.09847
896.793	8452.46558
896.973	8626.87078
897.152	8214.22979
897.331	8565.33158
897.511	8526.348
897.69	8442.20217
897.87	8173.12795
898.049	8099.12455
898.228	8101.18055
898.407	8327.21911
898.587	8123.79523
898.766	8429.88546
898.945	8035.37851
899.124	8255.3237
899.304	7940.75166
899.483	8045.66144
899.662	7839.90573
899.841	7928.40584
900.02	7778.13876
900.199	7648.36669
900.378	7524.69599
900.557	7761.66439
900.737	7545.31312
900.916	7757.54559
901.095	7613.33446
901.274	7714.29311
901.453	7543.2515
901.632	7551.49784
901.811	7440.14323
901.989	7588.60212
902.168	7320.46973
902.347	7588.60212
902.526	6911.36913
902.705	7089.16676
902.884	7056.10072
903.063	7456.64418
903.242	7217.24378
903.42	7188.33063
903.599	7167.67572
903.778	7613.33446
903.957	7093.29962
904.135	7142.88689
904.314	6766.52658
904.493	6838.96179
904.672	6745.82566
904.85	6770.66649
905.029	6451.62435
905.207	6723.05201
905.386	6188.1039
905.565	6578.06365
905.743	6360.36857
905.922	6468.21147
906.1	6150.724
906.279	6335.4728
906.457	6240.00782
906.636	6654.7144
906.814	6059.31885
906.993	6171.49155
907.171	6142.41632
907.35	6198.48586
907.528	5880.5317
907.707	6032.30406
907.885	5828.52597
908.063	6057.24093
908.242	5739.04161
908.42	6036.46044
908.598	5637.01787
908.777	5809.8003
908.955	5624.52127
909.133	5878.45175
909.311	5547.44017
909.49	5766.09962
909.668	5624.52127
909.846	5741.12314
910.024	5734.87849
910.202	5942.91911
910.38	5882.61162
910.559	5807.71955
910.737	5749.44901
910.915	6092.56235
911.093	5936.68132
911.271	5982.42016
911.449	5739.04161
911.627	5724.47026
911.805	5439.05547
911.983	5751.53042
912.161	5439.05547
912.339	5990.73509
912.517	5774.42436
912.695	6136.18531
912.872	5872.21177
913.05	6289.82181
913.228	5974.10486
913.406	6036.46044
913.584	5974.10486
913.762	6117.49103
913.939	5587.02639
914.117	6007.36381
914.295	5570.35955
914.473	5920.04619
914.65	6011.52075
914.828	6036.46044
915.006	5936.68132
915.184	5934.60201
915.361	5616.18974
915.539	5728.63362
915.716	5393.18126
915.894	5666.17329
916.072	5411.94936
916.249	5576.60979
916.427	5324.34864
916.604	5526.6019
916.782	5607.85782
916.959	5778.58659
917.137	5399.4375
917.314	5562.02556
917.492	5368.15417
917.669	5466.15761
917.847	5284.70616
918.024	5512.01371
918.201	5284.70616
918.379	5286.79282
918.556	5238.7938
918.733	5322.26241
918.911	4975.62414
919.088	5109.34366
919.265	5057.12075
919.442	5349.38164
919.62	5126.05193
919.797	5612.02383
919.974	5174.07992
920.151	5293.05265
920.328	5067.56649
920.506	5188.69469
920.683	5082.18955
920.86	5017.42166
921.037	4751.85158
921.214	4900.3654
921.391	4816.70976
921.568	5144.84695
921.745	4862.72489
921.922	5032.04861
922.099	4776.96056
922.276	5023.69049
922.453	4789.51383
922.63	4864.81622
922.807	4651.38312
922.984	4806.25024
923.161	4492.20259
923.338	4898.27445
923.514	4532.00975
923.691	4766.49888
923.868	4647.19581
924.045	4756.03664
924.222	4582.28105
924.399	4697.43761
924.575	4423.04493
924.752	4446.10014
924.929	4362.25036
925.105	4481.72569
925.282	4278.36587
925.459	4389.50537
925.635	4026.50833
925.812	4318.21531
925.989	4110.49441
926.165	4259.48712
926.342	3938.28753
926.518	4131.48573
926.695	4070.60516
926.871	4089.50101
927.048	3791.17386
927.224	4020.20804
927.401	3641.86043
927.577	3824.80843
927.754	3791.17386
927.93	3843.72565
928.107	3686.03365
928.283	3873.14924
928.459	3795.37846
928.636	3967.69846
928.812	3664.99983
928.988	3749.12359
929.165	3740.71261
929.341	3875.25078
929.517	3521.91989
929.693	3614.51091
929.87	3355.58857
930.046	3658.68931
930.222	3227.0809
930.398	3585.05404
930.574	3155.42661
930.751	3448.24258
930.927	3340.84503
931.103	3606.09503
931.279	3161.7498
931.455	3454.55864
931.631	3022.60632
931.807	3277.64885
931.983	3066.88668
932.159	3125.91642
932.335	2864.40794
932.511	2999.40913
932.687	2737.79141
932.863	3007.84469
933.039	2737.79141
933.215	3265.00777
933.391	2944.57217
933.566	2976.21012
933.742	2733.57002
933.918	2834.86853
934.094	2535.10732
934.27	2543.55474
934.445	2391.47391
934.621	2640.68627
934.797	2268.92511
934.973	2245.67949
935.148	2175.93624
935.324	2243.5662
935.5	2061.79183
935.675	2131.54943
935.851	1920.13977
936.027	2032.19531
936.202	1748.85587
936.378	1879.9649
936.553	1736.16705
936.729	1934.94053
936.904	1539.47768
937.08	1581.778
937.255	1471.79631
937.431	1647.34213
937.606	1283.55902
937.782	1353.35386
937.957	1232.80063
938.133	1156.66639
938.308	1080.5374
938.483	1103.79839
938.659	866.9938
938.834	979.04275
939.009	940.98604
939.185	1076.30819
939.36	843.74116
939.535	966.35693
939.71	780.33042
939.886	883.90545
940.061	909.27391
940.236	752.85512
940.411	642.97205
940.586	746.51491
940.761	626.06974
940.937	632.40802
941.112	693.68355
941.287	653.53639
941.462	617.61889
941.637	613.39353
941.812	566.91803
941.987	666.21399
942.162	431.75491
942.337	590.155
942.512	412.75256
942.687	550.01944
942.862	505.66485
943.037	505.66485
943.212	319.87153
943.386	507.77683
943.561	463.42832
943.736	505.66485
943.911	364.197
944.086	473.9869
944.26	378.97385
944.435	463.42832
944.61	421.19789
944.785	446.5354
944.959	364.197
945.134	514.11286
945.309	433.86636
945.483	389.52924
945.658	484.54585
945.833	378.97385
946.007	286.10501
946.182	427.53205
946.357	444.42385
946.531	459.205
946.706	463.42832
946.88	463.42832
947.055	389.52924
947.229	431.75491
947.404	387.41813
947.578	476.09866
947.752	412.75256
947.927	438.08931
948.101	488.76953
948.276	569.03042
948.45	429.64347
948.624	539.45826
948.799	495.10517
948.973	421.19789
949.147	416.97519
949.321	473.9869
949.496	425.42065
949.67	473.9869
949.844	497.21707
950.018	448.64696
950.193	488.76953
950.367	482.43403
950.541	395.86267
950.715	543.68269
950.889	480.32222
951.063	526.78531
951.237	457.09336
951.411	497.21707
951.585	435.97783
951.759	626.06974
951.933	391.64037
952.107	666.21399
952.281	463.42832
952.455	564.80566
952.629	476.09866
952.803	490.88139
952.977	414.86386
953.151	490.88139
953.325	425.42065
953.499	592.26753
953.672	528.89743
953.846	526.78531
954.02	349.42099
954.194	408.52999
954.368	425.42065
954.541	547.90718
954.715	419.08653
954.889	554.24401
955.062	471.87515
955.236	514.11286
955.41	486.65768
955.583	547.90718
955.757	560.58096
955.93	535.23389
956.104	353.64262
956.278	531.00957
956.451	533.12172
956.625	497.21707
956.798	395.86267
956.972	533.12172
957.145	340.97794
957.319	488.76953
957.492	362.08609
957.665	522.5611
957.839	433.86636
958.012	607.0556
958.185	495.10517
958.359	577.48009
958.532	406.41873
958.705	492.99327
958.879	531.00957
959.052	564.80566
959.225	459.205
959.398	522.5611
959.572	438.08931
959.745	488.76953
959.918	482.43403
960.091	507.77683
960.264	372.64081
960.438	585.92998
960.611	476.09866
960.784	505.66485
960.957	440.20081
961.13	435.97783
961.303	385.30703
961.476	522.5611
961.649	454.98174
961.822	598.60519
961.995	412.75256
962.168	442.31232
962.341	395.86267
962.514	467.65171
962.686	381.08489
962.859	442.31232
963.032	400.08505
963.205	463.42832
963.378	400.08505
963.551	471.87515
963.723	372.64081
963.896	433.86636
964.069	446.5354
964.242	438.08931
964.414	381.08489
964.587	421.19789
964.76	315.65046
964.932	419.08653
965.105	387.41813
965.278	463.42832
965.45	440.20081
965.623	406.41873
965.795	355.75346
965.968	368.41887
966.14	351.5318
966.313	362.08609
966.485	307.20854
966.658	302.98769
966.83	353.64262
967.003	389.52924
967.175	319.87153
967.348	442.31232
967.52	319.87153
967.692	421.19789
967.865	315.65046
968.037	421.19789
968.209	378.97385
968.382	359.9752
968.554	258.67319
968.726	275.55393
968.898	246.01343
969.071	423.30926
969.243	286.10501
969.415	313.53995
969.587	275.55393
969.759	315.65046
969.932	315.65046
970.104	288.21528
970.276	269.22351
970.448	330.42451
970.62	286.10501
970.792	347.3102
970.964	210.14789
971.136	319.87153
971.308	229.13482
971.48	406.41873
971.652	336.75651
971.824	319.87153
971.996	250.23327
972.168	298.76691
972.339	239.6838
972.511	233.35436
972.683	227.02509
972.855	311.42946
973.027	210.14789
973.199	288.21528
973.37	220.69599
973.542	296.65654
973.714	212.25747
973.886	174.28813
974.057	237.57397
974.229	205.9288
974.401	210.14789
974.572	256.56318
974.744	229.13482
974.915	262.89326
975.087	212.25747
975.259	260.78321
975.43	218.58633
975.602	205.9288
975.773	281.88452
975.945	248.12334
976.116	176.39736
976.288	227.02509
976.459	205.9288
976.63	218.58633
976.802	159.52406
976.973	170.06972
977.145	151.08791
977.316	186.94385
977.487	176.39736
977.659	256.56318
977.83	163.74226
978.001	176.39736
978.172	203.81928
978.344	155.30595
978.515	167.96055
978.686	167.96055
978.857	180.61589
979.028	248.12334
979.2	92.04447
979.371	178.50662
979.542	186.94385
979.713	117.34672
979.884	100.4782
980.055	157.41499
980.226	121.56407
980.397	108.91229
980.568	159.52406
980.739	144.76102
980.91	182.72519
981.081	189.0532
981.252	138.43433
981.423	203.81928
981.594	100.4782
981.765	153.19692
981.936	146.86997
982.106	184.83451
982.277	155.30595
982.448	43.55752
982.619	193.27198
982.79	167.96055
982.96	151.08791
983.131	182.72519
983.302	212.25747
983.472	159.52406
983.643	94.15287
983.814	151.08791
983.984	108.91229
984.155	163.74226
984.326	113.12946
984.496	123.67278
984.667	100.4782
984.837	134.21663
985.008	104.6952
985.178	111.02086
985.349	127.89025
985.519	106.80373
985.69	9.83468
985.86	108.91229
986.031	41.44967
986.201	85.71941
986.371	151.08791
986.542	157.41499
986.712	100.4782
986.882	155.30595
987.053	129.99903
987.223	113.12946
987.393	127.89025
987.563	98.36974
987.734	26.69535
987.904	129.99903
988.074	66.74543
988.244	49.88122
988.414	94.15287
988.585	113.12946
988.755	66.74543
988.925	87.82774
989.095	92.04447
989.265	11.94218
989.435	100.4782
989.605	83.6111
989.775	92.04447
989.945	85.71941
990.115	85.71941
990.285	108.91229
990.455	58.31314
990.625	39.34183
990.795	85.71941
990.965	98.36974
991.134	117.34672
991.304	104.6952
991.474	117.34672
991.644	58.31314
991.814	20.37242
991.984	85.71941
992.153	159.52406
992.323	-0.70246
992.493	161.63315
992.662	134.21663
992.832	75.17808
993.002	43.55752
993.171	7.72721
993.341	1.40492
993.511	100.4782
993.68	102.58669
993.85	58.31314
994.019	-15.45344
994.189	79.39455
994.358	75.17808
994.528	16.15725
994.697	16.15725
994.867	7.72721
995.036	60.42118
995.206	-4.91714
995.375	64.63732
995.544	70.96171
995.714	16.15725
995.883	54.09713
996.052	18.26482
996.222	43.55752
996.391	-0.70246
996.56	62.52924
996.73	14.04971
996.899	26.69535
997.068	49.88122
997.237	-13.34623
997.406	68.85356
997.576	26.69535
997.745	111.02086
997.914	68.85356
998.083	5.61975
998.252	41.44967
998.421	60.42118
998.59	33.01848
998.759	87.82774
998.928	-2.80981
999.097	28.80304
999.266	-0.70246
999.435	24.58768
999.604	87.82774
999.773	35.12624
999.942	-0.70246
1000.111	-25.98912
1000.28	18.26482
1000.448	-51.27223
1000.617	96.26129
1000.786	33.01848
1000.955	-17.56062
1001.124	-2.80981
1001.292	-25.98912
1001.461	-0.70246
1001.63	85.71941
1001.798	49.88122
1001.967	77.2863
1002.136	30.91075
1002.304	94.15287
1002.473	33.01848
1002.642	7.72721
1002.81	24.58768
1002.979	18.26482
1003.147	-4.91714
1003.316	51.98916
1003.484	37.23403
1003.653	37.23403
1003.821	39.34183
1003.99	16.15725
1004.158	47.77329
1004.327	85.71941
1004.495	-84.97739
1004.663	77.2863
1004.832	41.44967
1005	73.06989
1005.168	62.52924
1005.337	68.85356
1005.505	24.58768
1005.673	92.04447
1005.842	33.01848
1006.01	33.01848
1006.178	24.58768
1006.346	7.72721
1006.514	-28.09618
1006.683	-25.98912
1006.851	22.48004
1007.019	43.55752
1007.187	-7.02445
1007.355	33.01848
1007.523	77.2863
1007.691	113.12946
1007.859	18.26482
1008.027	28.80304
1008.195	108.91229
1008.363	-9.13173
1008.531	1.40492
1008.699	43.55752
1008.867	22.48004
1009.035	-15.45344
1009.203	-2.80981
1009.37	75.17808
1009.538	-49.16544
1009.706	-91.29638
1009.874	94.15287
1010.042	24.58768
1010.209	45.6654
1010.377	43.55752
1010.545	33.01848
1010.713	1.40492
1010.88	16.15725
1011.048	75.17808
1011.216	43.55752
1011.383	7.72721
1011.551	16.15725
1011.718	125.7815
1011.886	-49.16544
1012.054	41.44967
1012.221	-0.70246
1012.389	60.42118
1012.556	-38.63112
1012.724	3.51233
1012.891	-30.20322
1013.058	-32.31023
1013.226	-42.84492
1013.393	-17.56062
1013.561	-11.23899
1013.728	-47.05863
1013.895	3.51233
1014.063	24.58768
1014.23	-74.44523
1014.397	-51.27223
1014.565	-30.20322
1014.732	41.44967
1014.899	-28.09618
1015.066	24.58768
1015.233	43.55752
1015.401	-25.98912
1015.568	-0.70246
1015.735	41.44967
1015.902	-30.20322
1016.069	18.26482
1016.236	51.98916
1016.403	33.01848
1016.57	49.88122
1016.737	100.4782
1016.904	-13.34623
1017.071	37.23403
1017.238	68.85356
1017.405	-17.56062
1017.572	41.44967
1017.739	-32.31023
1017.906	16.15725
1018.073	-34.41722
1018.24	-28.09618
1018.407	35.12624
1018.573	-2.80981
1018.74	16.15725
1018.907	18.26482
1019.074	-38.63112
1019.241	-7.02445
1019.407	108.91229
1019.574	-55.48573
1019.741	-34.41722
1019.907	49.88122
1020.074	108.91229
1020.241	-59.69913
1020.407	94.15287
1020.574	33.01848
1020.74	-13.34623
1020.907	1.40492
1021.073	-11.23899
1021.24	7.72721
1021.406	24.58768
1021.573	7.72721
1021.739	60.42118
1021.906	22.48004
1022.072	-21.77492
1022.239	11.94218
1022.405	-9.13173
1022.571	-17.56062
1022.738	1.40492
1022.904	11.94218
1023.07	26.69535
1023.237	11.94218
1023.403	70.96171
1023.569	54.09713
1023.735	24.58768
1023.902	1.40492
1024.068	-7.02445
1024.234	-59.69913
1024.4	26.69535
1024.566	18.26482
1024.732	39.34183
1024.898	-11.23899
1025.065	-40.73804
1025.231	-17.56062
1025.397	26.69535
1025.563	1.40492
1025.729	-23.88203
1025.895	-40.73804
1026.061	20.37242
1026.227	-70.23219
1026.392	-25.98912
1026.558	7.72721
1026.724	41.44967
1026.89	7.72721
1027.056	-0.70246
1027.222	-38.63112
1027.388	-9.13173
1027.553	-21.77492
1027.719	-40.73804
1027.885	49.88122
1028.051	-9.13173
1028.216	-76.55171
1028.382	43.55752
1028.548	-82.87101
1028.713	33.01848
1028.879	58.31314
1029.045	11.94218
1029.21	-11.23899
1029.376	5.61975
1029.541	-19.66778
1029.707	41.44967
1029.873	-0.70246
1030.038	-13.34623
1030.204	49.88122
1030.369	43.55752
1030.534	-68.12563
1030.7	83.6111
1030.865	-40.73804
1031.031	24.58768
1031.196	16.15725
1031.361	9.83468
1031.527	41.44967
1031.692	-25.98912
1031.857	-9.13173
1032.023	11.94218
1032.188	51.98916
1032.353	-40.73804
1032.518	70.96171
1032.684	100.4782
1032.849	-51.27223
1033.014	28.80304
1033.179	28.80304
1033.344	-7.02445
1033.509	-38.63112
1033.674	-19.66778
1033.839	41.44967
1034.004	-61.80579
1034.17	-17.56062
1034.335	37.23403
1034.5	1.40492
1034.664	-0.70246
1034.829	30.91075
1034.994	7.72721
1035.159	83.6111
1035.324	-42.84492
1035.489	1.40492
1035.654	-23.88203
1035.819	-47.05863
1035.984	-11.23899
1036.148	-0.70246
1036.313	98.36974
1036.478	-0.70246
1036.643	9.83468
1036.807	-2.80981
1036.972	11.94218
1037.137	-28.09618
1037.301	-34.41722
1037.466	-13.34623
1037.631	-44.95179
1037.795	117.34672
1037.96	37.23403
1038.124	83.6111
1038.289	-51.27223
1038.454	35.12624
1038.618	-25.98912
1038.783	7.72721
1038.947	24.58768
1039.111	-42.84492
1039.276	73.06989
1039.44	33.01848
1039.605	64.63732
1039.769	-38.63112
1039.933	-17.56062
1040.098	9.83468
1040.262	24.58768
1040.426	35.12624
1040.591	-0.70246
1040.755	-82.87101
1040.919	33.01848
1041.083	16.15725
1041.248	7.72721
1041.412	-2.80981
1041.576	-9.13173
1041.74	20.37242
1041.904	-68.12563
1042.068	-17.56062
1042.232	60.42118
1042.397	41.44967
1042.561	-13.34623
1042.725	-68.12563
1042.889	-7.02445
1043.053	30.91075
1043.217	-0.70246
1043.381	24.58768
1043.544	3.51233
1043.708	-49.16544
1043.872	-23.88203
1044.036	-25.98912
1044.2	-66.01904
1044.364	24.58768
1044.528	-9.13173
1044.691	-11.23899
1044.855	43.55752
1045.019	-7.02445
1045.183	20.37242
1045.346	-13.34623
1045.51	7.72721
1045.674	28.80304
1045.837	117.34672
1046.001	-34.41722
1046.165	1.40492
1046.328	-44.95179
1046.492	-0.70246
1046.655	45.6654
1046.819	-42.84492
1046.983	-21.77492
1047.146	3.51233
1047.31	-17.56062
1047.473	1.40492
1047.636	37.23403
1047.8	-21.77492
1047.963	-76.55171
1048.127	33.01848
1048.29	-34.41722
